# Pulseq sequence file
# Created by MATLAB mr toolbox

[VERSION]
major 1
minor 4
revision 1

[DEFINITIONS]
AdcRasterTime 1e-07 
BlockDurationRaster 1e-05 
FOV 0.22 0.22 0.006 
GradientRasterTime 1e-05 
Name gre 
RadiofrequencyRasterTime 1e-06 
TotalDuration 21.2908 

# Format of blocks:
# NUM DUR RF  GX  GY  GZ  ADC  EXT
[BLOCKS]
   1 1434   1   0   0   1  0  0
   2 319   2   0   0   2  0  0
   3 100   0   3   4   5  0  0
   4 358   0   0   0   0  0  0
   5 966   0   6   0   0  0  0
   6 257   0   7   8   9  0  0
   7 1434   1   0   0   1  0  0
   8 319   3   0   0   2  0  0
   9 100   0   3  10   5  0  0
  10 358   0   0   0   0  0  0
  11 966   0   6   0   0  0  0
  12 257   0   7  11   9  0  0
  13 1434   1   0   0   1  0  0
  14 319   4   0   0   2  0  0
  15 100   0   3  12   5  0  0
  16 358   0   0   0   0  0  0
  17 966   0   6   0   0  0  0
  18 257   0   7  13   9  0  0
  19 1434   1   0   0   1  0  0
  20 319   5   0   0   2  0  0
  21 100   0   3  14   5  0  0
  22 358   0   0   0   0  0  0
  23 966   0   6   0   0  0  0
  24 257   0   7  15   9  0  0
  25 1434   1   0   0   1  0  0
  26 319   6   0   0   2  0  0
  27 100   0   3  16   5  0  0
  28 358   0   0   0   0  0  0
  29 966   0   6   0   0  0  0
  30 257   0   7  17   9  0  0
  31 1434   1   0   0   1  0  0
  32 319   7   0   0   2  0  0
  33 100   0   3  18   5  0  0
  34 358   0   0   0   0  0  0
  35 966   0   6   0   0  0  0
  36 257   0   7  19   9  0  0
  37 1434   1   0   0   1  0  0
  38 319   8   0   0   2  0  0
  39 100   0   3  20   5  0  0
  40 358   0   0   0   0  0  0
  41 966   0   6   0   0  0  0
  42 257   0   7  21   9  0  0
  43 1434   1   0   0   1  0  0
  44 319   9   0   0   2  0  0
  45 100   0   3  22   5  0  0
  46 358   0   0   0   0  0  0
  47 966   0   6   0   0  0  0
  48 257   0   7  23   9  0  0
  49 1434   1   0   0   1  0  0
  50 319  10   0   0   2  0  0
  51 100   0   3  24   5  0  0
  52 358   0   0   0   0  0  0
  53 966   0   6   0   0  0  0
  54 257   0   7  25   9  0  0
  55 1434   1   0   0   1  0  0
  56 319  11   0   0   2  0  0
  57 100   0   3  26   5  0  0
  58 358   0   0   0   0  0  0
  59 966   0   6   0   0  0  0
  60 257   0   7  27   9  0  0
  61 1434   1   0   0   1  0  0
  62 319   7   0   0   2  0  0
  63 100   0   3  25   5  0  0
  64 358   0   0   0   0  0  0
  65 966   0   6   0   0  1  0
  66 257   0   7  24   9  0  0
  67 1434   1   0   0   1  0  0
  68 319  12   0   0   2  0  0
  69 100   0   3  23   5  0  0
  70 358   0   0   0   0  0  0
  71 966   0   6   0   0  2  0
  72 257   0   7  22   9  0  0
  73 1434   1   0   0   1  0  0
  74 319  13   0   0   2  0  0
  75 100   0   3  21   5  0  0
  76 358   0   0   0   0  0  0
  77 966   0   6   0   0  3  0
  78 257   0   7  20   9  0  0
  79 1434   1   0   0   1  0  0
  80 319  14   0   0   2  0  0
  81 100   0   3  19   5  0  0
  82 358   0   0   0   0  0  0
  83 966   0   6   0   0  4  0
  84 257   0   7  18   9  0  0
  85 1434   1   0   0   1  0  0
  86 319  15   0   0   2  0  0
  87 100   0   3  17   5  0  0
  88 358   0   0   0   0  0  0
  89 966   0   6   0   0  5  0
  90 257   0   7  16   9  0  0
  91 1434   1   0   0   1  0  0
  92 319   2   0   0   2  0  0
  93 100   0   3  15   5  0  0
  94 358   0   0   0   0  0  0
  95 966   0   6   0   0  6  0
  96 257   0   7  14   9  0  0
  97 1434   1   0   0   1  0  0
  98 319  16   0   0   2  0  0
  99 100   0   3  13   5  0  0
 100 358   0   0   0   0  0  0
 101 966   0   6   0   0  7  0
 102 257   0   7  12   9  0  0
 103 1434   1   0   0   1  0  0
 104 319  17   0   0   2  0  0
 105 100   0   3  11   5  0  0
 106 358   0   0   0   0  0  0
 107 966   0   6   0   0  8  0
 108 257   0   7  10   9  0  0
 109 1434   1   0   0   1  0  0
 110 319  14   0   0   2  0  0
 111 100   0   3   8   5  0  0
 112 358   0   0   0   0  0  0
 113 966   0   6   0   0  4  0
 114 257   0   7   4   9  0  0
 115 1434   1   0   0   1  0  0
 116 319  18   0   0   2  0  0
 117 100   0   3  28   5  0  0
 118 358   0   0   0   0  0  0
 119 966   0   6   0   0  9  0
 120 257   0   7  29   9  0  0
 121 1434   1   0   0   1  0  0
 122 319   6   0   0   2  0  0
 123 100   0   3  30   5  0  0
 124 358   0   0   0   0  0  0
 125 966   0   6   0   0 10  0
 126 257   0   7  31   9  0  0
 127 1434   1   0   0   1  0  0
 128 319  19   0   0   2  0  0
 129 100   0   3  32   5  0  0
 130 358   0   0   0   0  0  0
 131 966   0   6   0   0 11  0
 132 257   0   7  33   9  0  0
 133 1434   1   0   0   1  0  0
 134 319  20   0   0   2  0  0
 135 100   0   3  34   5  0  0
 136 358   0   0   0   0  0  0
 137 966   0   6   0   0 12  0
 138 257   0   7  35   9  0  0
 139 1434   1   0   0   1  0  0
 140 319  10   0   0   2  0  0
 141 100   0   3  36   5  0  0
 142 358   0   0   0   0  0  0
 143 966   0   6   0   0 13  0
 144 257   0   7  37   9  0  0
 145 1434   1   0   0   1  0  0
 146 319  21   0   0   2  0  0
 147 100   0   3  38   5  0  0
 148 358   0   0   0   0  0  0
 149 966   0   6   0   0 14  0
 150 257   0   7  39   9  0  0
 151 1434   1   0   0   1  0  0
 152 319  11   0   0   2  0  0
 153 100   0   3  40   5  0  0
 154 358   0   0   0   0  0  0
 155 966   0   6   0   0 15  0
 156 257   0   7  41   9  0  0
 157 1434   1   0   0   1  0  0
 158 319  19   0   0   2  0  0
 159 100   0   3  42   5  0  0
 160 358   0   0   0   0  0  0
 161 966   0   6   0   0 11  0
 162 257   0   7  43   9  0  0
 163 1434   1   0   0   1  0  0
 164 319  22   0   0   2  0  0
 165 100   0   3  44   5  0  0
 166 358   0   0   0   0  0  0
 167 966   0   6   0   0 16  0
 168 257   0   7  45   9  0  0
 169 1434   1   0   0   1  0  0
 170 319   5   0   0   2  0  0
 171 100   0   3  46   5  0  0
 172 358   0   0   0   0  0  0
 173 966   0   6   0   0 17  0
 174 257   0   7  47   9  0  0
 175 1434   1   0   0   1  0  0
 176 319  23   0   0   2  0  0
 177 100   0   3  48   5  0  0
 178 358   0   0   0   0  0  0
 179 966   0   6   0   0 18  0
 180 257   0   7  49   9  0  0
 181 1434   1   0   0   1  0  0
 182 319  15   0   0   2  0  0
 183 100   0   3  50   5  0  0
 184 358   0   0   0   0  0  0
 185 966   0   6   0   0  5  0
 186 257   0   7  51   9  0  0
 187 1434   1   0   0   1  0  0
 188 319  16   0   0   2  0  0
 189 100   0   3  52   5  0  0
 190 358   0   0   0   0  0  0
 191 966   0   6   0   0  7  0
 192 257   0   7  53   9  0  0
 193 1434   1   0   0   1  0  0
 194 319  24   0   0   2  0  0
 195 100   0   3  54   5  0  0
 196 358   0   0   0   0  0  0
 197 966   0   6   0   0 19  0
 198 257   0   7  55   9  0  0
 199 1434   1   0   0   1  0  0
 200 319   3   0   0   2  0  0
 201 100   0   3  56   5  0  0
 202 358   0   0   0   0  0  0
 203 966   0   6   0   0 20  0
 204 257   0   7  57   9  0  0
 205 1434   1   0   0   1  0  0
 206 319  23   0   0   2  0  0
 207 100   0   3  58   5  0  0
 208 358   0   0   0   0  0  0
 209 966   0   6   0   0 18  0
 210 257   0   7  59   9  0  0
 211 1434   1   0   0   1  0  0
 212 319  18   0   0   2  0  0
 213 100   0   3  60   5  0  0
 214 358   0   0   0   0  0  0
 215 966   0   6   0   0  9  0
 216 257   0   7  61   9  0  0
 217 1434   1   0   0   1  0  0
 218 319  12   0   0   2  0  0
 219 100   0   3  62   5  0  0
 220 358   0   0   0   0  0  0
 221 966   0   6   0   0  2  0
 222 257   0   7  63   9  0  0
 223 1434   1   0   0   1  0  0
 224 319  25   0   0   2  0  0
 225 100   0   3  64   5  0  0
 226 358   0   0   0   0  0  0
 227 966   0   6   0   0 21  0
 228 257   0   7  65   9  0  0
 229 1434   1   0   0   1  0  0
 230 319   8   0   0   2  0  0
 231 100   0   3  66   5  0  0
 232 358   0   0   0   0  0  0
 233 966   0   6   0   0 22  0
 234 257   0   7  67   9  0  0
 235 1434   1   0   0   1  0  0
 236 319  21   0   0   2  0  0
 237 100   0   3  68   5  0  0
 238 358   0   0   0   0  0  0
 239 966   0   6   0   0 14  0
 240 257   0   7  69   9  0  0
 241 1434   1   0   0   1  0  0
 242 319  21   0   0   2  0  0
 243 100   0   3  70   5  0  0
 244 358   0   0   0   0  0  0
 245 966   0   6   0   0 14  0
 246 257   0   7  71   9  0  0
 247 1434   1   0   0   1  0  0
 248 319   8   0   0   2  0  0
 249 100   0   3  72   5  0  0
 250 358   0   0   0   0  0  0
 251 966   0   6   0   0 22  0
 252 257   0   7  73   9  0  0
 253 1434   1   0   0   1  0  0
 254 319  25   0   0   2  0  0
 255 100   0   3  74   5  0  0
 256 358   0   0   0   0  0  0
 257 966   0   6   0   0 21  0
 258 257   0   7  75   9  0  0
 259 1434   1   0   0   1  0  0
 260 319  12   0   0   2  0  0
 261 100   0   3  76   5  0  0
 262 358   0   0   0   0  0  0
 263 966   0   6   0   0  2  0
 264 257   0   7  77   9  0  0
 265 1434   1   0   0   1  0  0
 266 319  18   0   0   2  0  0
 267 100   0   3  78   5  0  0
 268 358   0   0   0   0  0  0
 269 966   0   6   0   0  9  0
 270 257   0   7  79   9  0  0
 271 1434   1   0   0   1  0  0
 272 319  23   0   0   2  0  0
 273 100   0   3  80   5  0  0
 274 358   0   0   0   0  0  0
 275 966   0   6   0   0 18  0
 276 257   0   7  81   9  0  0
 277 1434   1   0   0   1  0  0
 278 319   3   0   0   2  0  0
 279 100   0   3  82   5  0  0
 280 358   0   0   0   0  0  0
 281 966   0   6   0   0 20  0
 282 257   0   7  83   9  0  0
 283 1434   1   0   0   1  0  0
 284 319  24   0   0   2  0  0
 285 100   0   3  84   5  0  0
 286 358   0   0   0   0  0  0
 287 966   0   6   0   0 19  0
 288 257   0   7  85   9  0  0
 289 1434   1   0   0   1  0  0
 290 319  16   0   0   2  0  0
 291 100   0   3  86   5  0  0
 292 358   0   0   0   0  0  0
 293 966   0   6   0   0  7  0
 294 257   0   7  87   9  0  0
 295 1434   1   0   0   1  0  0
 296 319  15   0   0   2  0  0
 297 100   0   3  88   5  0  0
 298 358   0   0   0   0  0  0
 299 966   0   6   0   0  5  0
 300 257   0   7  89   9  0  0
 301 1434   1   0   0   1  0  0
 302 319  23   0   0   2  0  0
 303 100   0   3  90   5  0  0
 304 358   0   0   0   0  0  0
 305 966   0   6   0   0 18  0
 306 257   0   7  91   9  0  0
 307 1434   1   0   0   1  0  0
 308 319   5   0   0   2  0  0
 309 100   0   3  92   5  0  0
 310 358   0   0   0   0  0  0
[RF]
1      112.796 1 2 0 100 -406.047 0
2      36.5724 3 4 0 100 1000 0
3      36.5724 3 4 0 100 1000 2.04204
4      36.5724 3 4 0 100 1000 6.12611
5      36.5724 3 4 0 100 1000 5.96903
6      36.5724 3 4 0 100 1000 1.5708
7      36.5724 3 4 0 100 1000 5.49779
8      36.5724 3 4 0 100 1000 5.18363
9      36.5724 3 4 0 100 1000 0.628319
10      36.5724 3 4 0 100 1000 4.39823
11      36.5724 3 4 0 100 1000 3.92699
12      36.5724 3 4 0 100 1000 2.82743
13      36.5724 3 4 0 100 1000 2.19911
14      36.5724 3 4 0 100 1000 3.61283
15      36.5724 3 4 0 100 1000 0.785398
16      36.5724 3 4 0 100 1000 1.25664
17      36.5724 3 4 0 100 1000 4.55531
18      36.5724 3 4 0 100 1000 4.71239
19      36.5724 3 4 0 100 1000 0.471239
20      36.5724 3 4 0 100 1000 1.41372
21      36.5724 3 4 0 100 1000 3.14159
22      36.5724 3 4 0 100 1000 5.34071
23      36.5724 3 4 0 100 1000 2.35619
24      36.5724 3 4 0 100 1000 3.76991
25      36.5724 3 4 0 100 1000 2.98451
26      36.5724 3 4 0 100 -1000 0
27      36.5724 3 4 0 100 -1000 2.04204
28      36.5724 3 4 0 100 -1000 6.12611
29      36.5724 3 4 0 100 -1000 5.96903
30      36.5724 3 4 0 100 -1000 1.5708
31      36.5724 3 4 0 100 -1000 5.49779
32      36.5724 3 4 0 100 -1000 5.18363
33      36.5724 3 4 0 100 -1000 0.628319
34      36.5724 3 4 0 100 -1000 4.39823
35      36.5724 3 4 0 100 -1000 3.92699
36      36.5724 3 4 0 100 -1000 2.82743
37      36.5724 3 4 0 100 -1000 2.19911
38      36.5724 3 4 0 100 -1000 3.61283
39      36.5724 3 4 0 100 -1000 0.785398
40      36.5724 3 4 0 100 -1000 1.25664
41      36.5724 3 4 0 100 -1000 4.55531
42      36.5724 3 4 0 100 -1000 4.71239
43      36.5724 3 4 0 100 -1000 0.471239
44      36.5724 3 4 0 100 -1000 1.41372
45      36.5724 3 4 0 100 -1000 3.14159
46      36.5724 3 4 0 100 -1000 5.34071
47      36.5724 3 4 0 100 -1000 2.35619
48      36.5724 3 4 0 100 -1000 3.76991
49      36.5724 3 4 0 100 -1000 2.98451

# Format of trapezoid gradients:
# id amplitude rise flat fall delay
# ..      Hz/m   us   us   us    us
[TRAP]
 1  1.70068e+06 340 5540 340 8120
 2       444444  90 3000  90  10
 3      -814225 160  680 160   0
 4      -762987 160  680 160   0
 5      -827309 170  660 170   0
 6       142045  30 9600  30   0
 7  1.69396e+06 340 1270 340   0
 8       762987 160  680 160   0
 9  1.68776e+06 340  450 340   0
10      -768398 160  680 160   0
11       768398 160  680 160   0
12      -773810 160  680 160   0
13       773810 160  680 160   0
14      -779221 160  680 160   0
15       779221 160  680 160   0
16      -784632 160  680 160   0
17       784632 160  680 160   0
18      -790043 160  680 160   0
19       790043 160  680 160   0
20      -795455 160  680 160   0
21       795455 160  680 160   0
22      -800866 160  680 160   0
23       800866 160  680 160   0
24      -806277 160  680 160   0
25       806277 160  680 160   0
26      -811688 160  680 160   0
27       811688 160  680 160   0
28       757576 160  680 160   0
29      -757576 160  680 160   0
30       752165 160  680 160   0
31      -752165 160  680 160   0
32       746753 160  680 160   0
33      -746753 160  680 160   0
34       741342 160  680 160   0
35      -741342 160  680 160   0
36       735931 160  680 160   0
37      -735931 160  680 160   0
38       730519 160  680 160   0
39      -730519 160  680 160   0
40       725108 160  680 160   0
41      -725108 160  680 160   0
42       719697 160  680 160   0
43      -719697 160  680 160   0
44       714286 160  680 160   0
45      -714286 160  680 160   0
46       708874 160  680 160   0
47      -708874 160  680 160   0
48       703463 160  680 160   0
49      -703463 160  680 160   0
50       698052 160  680 160   0
51      -698052 160  680 160   0
52       692641 160  680 160   0
53      -692641 160  680 160   0
54       687229 160  680 160   0
55      -687229 160  680 160   0
56       681818 160  680 160   0
57      -681818 160  680 160   0
58       676407 160  680 160   0
59      -676407 160  680 160   0
60       670996 160  680 160   0
61      -670996 160  680 160   0
62       665584 160  680 160   0
63      -665584 160  680 160   0
64       660173 160  680 160   0
65      -660173 160  680 160   0
66       654762 160  680 160   0
67      -654762 160  680 160   0
68       649351 160  680 160   0
69      -649351 160  680 160   0
70       643939 160  680 160   0
71      -643939 160  680 160   0
72       638528 160  680 160   0
73      -638528 160  680 160   0
74       633117 160  680 160   0
75      -633117 160  680 160   0
76       627706 160  680 160   0
77      -627706 160  680 160   0
78       622294 160  680 160   0
79      -622294 160  680 160   0
80       616883 160  680 160   0
81      -616883 160  680 160   0
82       611472 160  680 160   0
83      -611472 160  680 160   0
84       606061 160  680 160   0
85      -606061 160  680 160   0
86       600649 160  680 160   0
87      -600649 160  680 160   0
88       595238 160  680 160   0
89      -595238 160  680 160   0
90       589827 160  680 160   0
91      -589827 160  680 160   0
92       584416 160  680 160   0
93      -584416 160  680 160   0
94       579004 160  680 160   0
95      -579004 160  680 160   0
96       573593 160  680 160   0
97      -573593 160  680 160   0
98       568182 160  680 160   0
99      -568182 160  680 160   0
100       562771 160  680 160   0
101      -562771 160  680 160   0
102       557359 160  680 160   0
103      -557359 160  680 160   0
104       551948 160  680 160   0
105      -551948 160  680 160   0
106       546537 160  680 160   0
107      -546537 160  680 160   0
108       541126 160  680 160   0
109      -541126 160  680 160   0
110       535714 160  680 160   0
111      -535714 160  680 160   0
112       530303 160  680 160   0
113      -530303 160  680 160   0
114       524892 160  680 160   0
115      -524892 160  680 160   0
116       519481 160  680 160   0
117      -519481 160  680 160   0
118       514069 160  680 160   0
119      -514069 160  680 160   0
120       508658 160  680 160   0
121      -508658 160  680 160   0
122       503247 160  680 160   0
123      -503247 160  680 160   0
124       497835 160  680 160   0
125      -497835 160  680 160   0
126       492424 160  680 160   0
127      -492424 160  680 160   0
128       487013 160  680 160   0
129      -487013 160  680 160   0
130       481602 160  680 160   0
131      -481602 160  680 160   0
132       476190 160  680 160   0
133      -476190 160  680 160   0
134       470779 160  680 160   0
135      -470779 160  680 160   0
136       465368 160  680 160   0
137      -465368 160  680 160   0
138       459957 160  680 160   0
139      -459957 160  680 160   0
140       454545 160  680 160   0
141      -454545 160  680 160   0
142       449134 160  680 160   0
143      -449134 160  680 160   0
144       443723 160  680 160   0
145      -443723 160  680 160   0
146       438312 160  680 160   0
147      -438312 160  680 160   0
148       432900 160  680 160   0
149      -432900 160  680 160   0
150       427489 160  680 160   0
151      -427489 160  680 160   0
152       422078 160  680 160   0
153      -422078 160  680 160   0
154       416667 160  680 160   0
155      -416667 160  680 160   0
156       411255 160  680 160   0
157      -411255 160  680 160   0
158       405844 160  680 160   0
159      -405844 160  680 160   0
160       400433 160  680 160   0
161      -400433 160  680 160   0
162       395022 160  680 160   0
163      -395022 160  680 160   0
164       389610 160  680 160   0
165      -389610 160  680 160   0
166       384199 160  680 160   0
167      -384199 160  680 160   0
168       378788 160  680 160   0
169      -378788 160  680 160   0
170       373377 160  680 160   0
171      -373377 160  680 160   0
172       367965 160  680 160   0
173      -367965 160  680 160   0
174       362554 160  680 160   0
175      -362554 160  680 160   0
176       357143 160  680 160   0
177      -357143 160  680 160   0
178       351732 160  680 160   0
179      -351732 160  680 160   0
180       346320 160  680 160   0
181      -346320 160  680 160   0
182       340909 160  680 160   0
183      -340909 160  680 160   0
184       335498 160  680 160   0
185      -335498 160  680 160   0
186       330087 160  680 160   0
187      -330087 160  680 160   0
188       324675 160  680 160   0
189      -324675 160  680 160   0
190       319264 160  680 160   0
191      -319264 160  680 160   0
192       313853 160  680 160   0
193      -313853 160  680 160   0
194       308442 160  680 160   0
195      -308442 160  680 160   0
196       303030 160  680 160   0
197      -303030 160  680 160   0
198       297619 160  680 160   0
199      -297619 160  680 160   0
200       292208 160  680 160   0
201      -292208 160  680 160   0
202       286797 160  680 160   0
203      -286797 160  680 160   0
204       281385 160  680 160   0
205      -281385 160  680 160   0
206       275974 160  680 160   0
207      -275974 160  680 160   0
208       270563 160  680 160   0
209      -270563 160  680 160   0
210       265152 160  680 160   0
211      -265152 160  680 160   0
212       259740 160  680 160   0
213      -259740 160  680 160   0
214       254329 160  680 160   0
215      -254329 160  680 160   0
216       248918 160  680 160   0
217      -248918 160  680 160   0
218       243506 160  680 160   0
219      -243506 160  680 160   0
220       238095 160  680 160   0
221      -238095 160  680 160   0
222       232684 160  680 160   0
223      -232684 160  680 160   0
224       227273 160  680 160   0
225      -227273 160  680 160   0
226       221861 160  680 160   0
227      -221861 160  680 160   0
228       216450 160  680 160   0
229      -216450 160  680 160   0
230       211039 160  680 160   0
231      -211039 160  680 160   0
232       205628 160  680 160   0
233      -205628 160  680 160   0
234       200216 160  680 160   0
235      -200216 160  680 160   0
236       194805 160  680 160   0
237      -194805 160  680 160   0
238       189394 160  680 160   0
239      -189394 160  680 160   0
240       183983 160  680 160   0
241      -183983 160  680 160   0
242       178571 160  680 160   0
243      -178571 160  680 160   0
244       173160 160  680 160   0
245      -173160 160  680 160   0
246       167749 160  680 160   0
247      -167749 160  680 160   0
248       162338 160  680 160   0
249      -162338 160  680 160   0
250       156926 160  680 160   0
251      -156926 160  680 160   0
252       151515 160  680 160   0
253      -151515 160  680 160   0
254       146104 160  680 160   0
255      -146104 160  680 160   0
256       140693 160  680 160   0
257      -140693 160  680 160   0
258       135281 160  680 160   0
259      -135281 160  680 160   0
260       129870 160  680 160   0
261      -129870 160  680 160   0
262       124459 160  680 160   0
263      -124459 160  680 160   0
264       119048 160  680 160   0
265      -119048 160  680 160   0
266       113636 160  680 160   0
267      -113636 160  680 160   0
268       108225 160  680 160   0
269      -108225 160  680 160   0
270       102814 160  680 160   0
271      -102814 160  680 160   0
272      97402.6 160  680 160   0
273     -97402.6 160  680 160   0
274      91991.3 160  680 160   0
275     -91991.3 160  680 160   0
276      86580.1 160  680 160   0
277     -86580.1 160  680 160   0
278      81168.8 160  680 160   0
279     -81168.8 160  680 160   0
280      75757.6 160  680 160   0
281     -75757.6 160  680 160   0
282      70346.3 160  680 160   0
283     -70346.3 160  680 160   0
284      64935.1 160  680 160   0
285     -64935.1 160  680 160   0
286      59523.8 160  680 160   0
287     -59523.8 160  680 160   0
288      54112.6 160  680 160   0
289     -54112.6 160  680 160   0
290      48701.3 160  680 160   0
291     -48701.3 160  680 160   0
292        43290 160  680 160   0
293       -43290 160  680 160   0
294      37878.8 160  680 160   0
295     -37878.8 160  680 160   0
296      32467.5 160  680 160   0
297     -32467.5 160  680 160   0
298      27056.3 160  680 160   0
299     -27056.3 160  680 160   0
300        21645 160  680 160   0
301       -21645 160  680 160   0
302      16233.8 160  680 160   0
303     -16233.8 160  680 160   0
304      10822.5 160  680 160   0
305     -10822.5 160  680 160   0
306      5411.26 160  680 160   0
307     -5411.26 160  680 160   0
308            0 160  680 160   0
309           -0 160  680 160   0

# Format of ADC events:
# id num dwell delay freq phase
# ..  ..    ns    us   Hz   rad
[ADC]
1 300 32000 30 0 5.49779
2 300 32000 30 0 2.82743
3 300 32000 30 0 2.19911
4 300 32000 30 0 3.61283
5 300 32000 30 0 0.785398
6 300 32000 30 0 0
7 300 32000 30 0 1.25664
8 300 32000 30 0 4.55531
9 300 32000 30 0 4.71239
10 300 32000 30 0 1.5708
11 300 32000 30 0 0.471239
12 300 32000 30 0 1.41372
13 300 32000 30 0 4.39823
14 300 32000 30 0 3.14159
15 300 32000 30 0 3.92699
16 300 32000 30 0 5.34071
17 300 32000 30 0 5.96903
18 300 32000 30 0 2.35619
19 300 32000 30 0 3.76991
20 300 32000 30 0 2.04204
21 300 32000 30 0 2.98451
22 300 32000 30 0 5.18363
23 300 32000 30 0 0.628319
24 300 32000 30 0 6.12611

# Sequence Shapes
[SHAPES]

shape_id 1
num_samples 8000
0.000252166652
0.000253213472
0.000254264375
0.000255319374
0.000256378485
0.000257441723
0.000258509103
0.000259580639
0.000260656347
0.000261736241
0.000262820337
0.00026390865
0.000265001195
0.000266097988
0.000267199043
0.000268304375
0.000269414002
0.000270527937
0.000271646196
0.000272768796
0.000273895751
0.000275027077
0.000276162789
0.000277302905
0.000278447439
0.000279596407
0.000280749825
0.00028190771
0.000283070076
0.000284236941
0.000285408321
0.00028658423
0.000287764687
0.000288949707
0.000290139306
0.0002913335
0.000292532307
0.000293735743
0.000294943824
0.000296156566
0.000297373987
0.000298596103
0.000299822932
0.000301054488
0.000302290791
0.000303531856
0.000304777701
0.000306028342
0.000307283796
0.000308544082
0.000309809215
0.000311079214
0.000312354095
0.000313633876
0.000314918574
0.000316208207
0.000317502793
0.000318802348
0.000320106891
0.000321416439
0.00032273101
0.000324050622
0.000325375292
0.000326705039
0.000328039881
0.000329379835
0.000330724921
0.000332075155
0.000333430556
0.000334791142
0.000336156933
0.000337527945
0.000338904198
0.00034028571
0.0003416725
0.000343064586
0.000344461987
0.000345864721
0.000347272809
0.000348686267
0.000350105116
0.000351529374
0.000352959061
0.000354394195
0.000355834796
0.000357280883
0.000358732474
0.000360189591
0.000361652251
0.000363120475
0.000364594281
0.00036607369
0.000367558722
0.000369049395
0.00037054573
0.000372047747
0.000373555465
0.000375068904
0.000376588085
0.000378113028
0.000379643752
0.000381180279
0.000382722627
0.000384270818
0.000385824873
0.000387384811
0.000388950653
0.000390522419
0.000392100131
0.00039368381
0.000395273475
0.000396869148
0.00039847085
0.000400078601
0.000401692423
0.000403312338
0.000404938365
0.000406570527
0.000408208845
0.00040985334
0.000411504033
0.000413160947
0.000414824103
0.000416493522
0.000418169226
0.000419851237
0.000421539577
0.000423234268
0.000424935332
0.000426642791
0.000428356667
0.000430076982
0.000431803759
0.00043353702
0.000435276787
0.000437023083
0.00043877593
0.000440535352
0.000442301371
0.000444074009
0.000445853289
0.000447639235
0.000449431869
0.000451231214
0.000453037295
0.000454850132
0.000456669751
0.000458496175
0.000460329426
0.000462169528
0.000464016505
0.000465870381
0.000467731179
0.000469598923
0.000471473636
0.000473355344
0.000475244069
0.000477139837
0.00047904267
0.000480952593
0.000482869631
0.000484793808
0.000486725149
0.000488663677
0.000490609418
0.000492562396
0.000494522636
0.000496490163
0.000498465002
0.000500447177
0.000502436714
0.000504433638
0.000506437974
0.000508449747
0.000510468983
0.000512495707
0.000514529945
0.000516571722
0.000518621065
0.000520677998
0.000522742547
0.00052481474
0.0005268946
0.000528982156
0.000531077431
0.000533180454
0.000535291251
0.000537409846
0.000539536268
0.000541670543
0.000543812697
0.000545962757
0.00054812075
0.000550286703
0.000552460642
0.000554642595
0.000556832588
0.00055903065
0.000561236807
0.000563451087
0.000565673517
0.000567904124
0.000570142937
0.000572389983
0.000574645289
0.000576908884
0.000579180796
0.000581461052
0.000583749681
0.000586046711
0.00058835217
0.000590666087
0.00059298849
0.000595319407
0.000597658868
0.0006000069
0.000602363534
0.000604728797
0.000607102718
0.000609485328
0.000611876654
0.000614276726
0.000616685573
0.000619103225
0.000621529712
0.000623965062
0.000626409306
0.000628862474
0.000631324594
0.000633795698
0.000636275815
0.000638764975
0.000641263208
0.000643770545
0.000646287017
0.000648812653
0.000651347484
0.000653891541
0.000656444855
0.000659007457
0.000661579376
0.000664160645
0.000666751295
0.000669351357
0.000671960861
0.00067457984
0.000677208326
0.000679846348
0.00068249394
0.000685151133
0.000687817959
0.000690494449
0.000693180637
0.000695876553
0.000698582231
0.000701297702
0.000704022999
0.000706758155
0.000709503202
0.000712258173
0.000715023101
0.000717798018
0.000720582958
0.000723377954
0.000726183039
0.000728998246
0.000731823608
0.00073465916
0.000737504934
0.000740360965
0.000743227286
0.000746103931
0.000748990934
0.00075188833
0.000754796151
0.000757714434
0.000760643211
0.000763582518
0.000766532389
0.000769492859
0.000772463962
0.000775445734
0.00077843821
0.000781441423
0.000784455411
0.000787480208
0.000790515849
0.00079356237
0.000796619807
0.000799688195
0.00080276757
0.000805857968
0.000808959425
0.000812071977
0.00081519566
0.000818330511
0.000821476567
0.000824633863
0.000827802436
0.000830982323
0.000834173562
0.000837376188
0.000840590239
0.000843815753
0.000847052765
0.000850301315
0.000853561439
0.000856833175
0.000860116561
0.000863411634
0.000866718433
0.000870036995
0.000873367358
0.000876709562
0.000880063644
0.000883429642
0.000886807596
0.000890197544
0.000893599525
0.000897013577
0.000900439741
0.000903878054
0.000907328557
0.000910791288
0.000914266287
0.000917753594
0.000921253248
0.000924765289
0.000928289757
0.000931826693
0.000935376136
0.000938938126
0.000942512705
0.000946099912
0.000949699788
0.000953312373
0.00095693771
0.000960575838
0.000964226799
0.000967890634
0.000971567384
0.00097525709
0.000978959795
0.00098267554
0.000986404366
0.000990146316
0.000993901432
0.000997669755
0.00100145133
0.00100524619
0.00100905439
0.00101287597
0.00101671097
0.00102055943
0.0010244214
0.00102829691
0.00103218602
0.00103608876
0.00104000519
0.00104393533
0.00104787925
0.00105183697
0.00105580854
0.00105979402
0.00106379343
0.00106780684
0.00107183427
0.00107587578
0.00107993141
0.00108400121
0.00108808522
0.00109218348
0.00109629604
0.00110042295
0.00110456424
0.00110871998
0.0011128902
0.00111707494
0.00112127426
0.0011254882
0.00112971681
0.00113396013
0.0011382182
0.00114249109
0.00114677882
0.00115108146
0.00115539904
0.00115973162
0.00116407923
0.00116844194
0.00117281978
0.0011772128
0.00118162105
0.00118604458
0.00119048344
0.00119493767
0.00119940733
0.00120389246
0.00120839311
0.00121290933
0.00121744116
0.00122198866
0.00122655188
0.00123113086
0.00123572566
0.00124033632
0.00124496289
0.00124960542
0.00125426397
0.00125893858
0.00126362931
0.0012683362
0.0012730593
0.00127779867
0.00128255435
0.0012873264
0.00129211486
0.00129691979
0.00130174125
0.00130657927
0.00131143391
0.00131630523
0.00132119328
0.0013260981
0.00133101975
0.00133595829
0.00134091376
0.00134588622
0.00135087571
0.0013558823
0.00136090604
0.00136594697
0.00137100515
0.00137608064
0.00138117349
0.00138628375
0.00139141148
0.00139655673
0.00140171955
0.0014069
0.00141209814
0.00141731401
0.00142254767
0.00142779918
0.00143306859
0.00143835596
0.00144366135
0.0014489848
0.00145432637
0.00145968612
0.00146506411
0.00147046039
0.00147587501
0.00148130804
0.00148675953
0.00149222954
0.00149771812
0.00150322533
0.00150875123
0.00151429587
0.00151985931
0.00152544162
0.00153104284
0.00153666303
