# Pulseq sequence file
# Created by MATLAB mr toolbox

[VERSION]
major 1
minor 4
revision 1

[DEFINITIONS]
AdcRasterTime 1e-07 
BlockDurationRaster 1e-05 
FOV 0.22 0.22 0.006 
GradientRasterTime 1e-05 
Name epi-diff 
RadiofrequencyRasterTime 1e-06 
TotalDuration 83.96304 

# Format of blocks:
# NUM DUR RF  GX  GY  GZ  ADC  EXT
[BLOCKS]
   1 1225   1   2   3   1  0  0
   2 515   2   0   0   4  0  1
   3 3771   0   0   0   0  0  0
   4 879   3   0   0   5  0  0
   5 1424   0   0   0   0  0  0
   6  96   0   6   7   0  0  0
   7 100   0   0   0   0  0  0
   8  88   0   0   0   0  0  0
   9 110   0   8   9   0  0  0
  10 110   0  10  11   0  0  0
  11 110   0   8  11   0  0  0
  12 110   0  10  11   0  0  0
  13 110   0   8  11   0  0  0
  14 110   0  10  11   0  0  0
  15 110   0   8  11   0  0  0
  16 110   0  10  11   0  0  0
  17 110   0   8  11   0  0  0
  18 110   0  10  11   0  0  0
  19 110   0   8  11   0  0  0
  20 110   0  10  11   0  0  0
  21 110   0   8  11   0  0  0
  22 110   0  10  11   0  0  0
  23 110   0   8  11   0  0  0
  24 110   0  10  11   0  0  0
  25 110   0   8  11   0  0  0
  26 110   0  10  11   0  0  0
  27 110   0   8  11   0  0  0
  28 110   0  10  11   0  0  0
  29 110   0   8  11   0  0  0
  30 110   0  10  11   0  0  0
  31 110   0   8  11   0  0  0
  32 110   0  10  11   0  0  0
  33 110   0   8  11   0  0  0
  34 110   0  10  11   0  0  0
  35 110   0   8  11   0  0  0
  36 110   0  10  11   0  0  0
  37 110   0   8  11   0  0  0
  38 110   0  10  11   0  0  0
  39 110   0   8  11   0  0  0
  40 110   0  10  11   0  0  0
  41 110   0   8  11   0  0  0
  42 110   0  10  11   0  0  0
  43 110   0   8  11   0  0  0
  44 110   0  10  11   0  0  0
  45 110   0   8  11   0  0  0
  46 110   0  10  11   0  0  0
  47 110   0   8  11   0  0  0
  48 110   0  10  11   0  0  0
  49 110   0   8  11   0  0  0
  50 110   0  10  11   0  0  0
  51 110   0   8  11   0  0  0
  52 110   0  10  11   0  0  0
  53 110   0   8  11   0  0  0
  54 110   0  10  11   0  0  0
  55 110   0   8  11   0  0  0
  56 110   0  10  11   0  0  0
  57 110   0   8  11   0  0  0
  58 110   0  10  11   0  0  0
  59 110   0   8  11   0  0  0
  60 110   0  10  11   0  0  0
  61 110   0   8  11   0  0  0
  62 110   0  10  12   0  0  0
  63 110   0   8   0   0  0  0
  64 948   3   0   0  13  0  0
  65 119   0   0  14   0  0  0
  66 1211   0   0   0   0  0  0
  67 100   0   0   0   0  0  0
  68 110   0   8  15   0  0  0
  69 110   0  10  16   0  0  0
  70 110   0   8  16   0  0  0
  71 110   0  10  16   0  0  0
  72 110   0   8  16   0  0  0
  73 110   0  10  16   0  0  0
  74 110   0   8  16   0  0  0
  75 110   0  10  16   0  0  0
  76 110   0   8  16   0  0  0
  77 110   0  10  16   0  0  0
  78 110   0   8  16   0  0  0
  79 110   0  10  16   0  0  0
  80 110   0   8  16   0  0  0
  81 110   0  10  16   0  0  0
  82 110   0   8  16   0  0  0
  83 110   0  10  16   0  0  0
  84 110   0   8  16   0  0  0
  85 110   0  10  16   0  0  0
  86 110   0   8  16   0  0  0
  87 110   0  10  16   0  0  0
  88 110   0   8  16   0  0  0
  89 110   0  10  16   0  0  0
  90 110   0   8  16   0  0  0
  91 110   0  10  16   0  0  0
  92 110   0   8  16   0  0  0
  93 110   0  10  16   0  0  0
  94 110   0   8  16   0  0  0
  95 110   0  10  16   0  0  0
  96 110   0   8  16   0  0  0
  97 110   0  10  16   0  0  0
  98 110   0   8  16   0  0  0
  99 110   0  10  16   0  0  0
 100 110   0   8  16   0  0  0
 101 110   0  10  16   0  0  0
 102 110   0   8  16   0  0  0
 103 110   0  10  16   0  0  0
 104 110   0   8  16   0  0  0
 105 110   0  10  16   0  0  0
 106 110   0   8  17   0  0  0
 107 414   0  20  19  18  0  0
 108 178682   0   0   0   0  0  0
 109 1225   1   2   3   1  0  0
 110 515   4   0   0   4  0  1
 111 3771   0   0   0   0  0  0
 112 879   5   0   0   5  0  0
 113 1424   0   0   0   0  0  0
 114  96   0   6   7   0  0  0
 115 100   0   0   0   0  0  0
 116  88   0   0   0   0  0  0
 117 110   0   8   9   0  0  0
 118 110   0  10  11   0  0  0
 119 110   0   8  11   0  0  0
 120 110   0  10  11   0  0  0
 121 110   0   8  11   0  0  0
 122 110   0  10  11   0  0  0
 123 110   0   8  11   0  0  0
 124 110   0  10  11   0  0  0
 125 110   0   8  11   0  0  0
 126 110   0  10  11   0  0  0
 127 110   0   8  11   0  0  0
 128 110   0  10  11   0  0  0
 129 110   0   8  11   0  0  0
 130 110   0  10  11   0  0  0
 131 110   0   8  11   0  0  0
 132 110   0  10  11   0  0  0
 133 110   0   8  11   0  0  0
 134 110   0  10  11   0  0  0
 135 110   0   8  11   0  0  0
 136 110   0  10  11   0  0  0
 137 110   0   8  11   0  0  0
 138 110   0  10  11   0  0  0
 139 110   0   8  11   0  0  0
 140 110   0  10  11   0  0  0
 141 110   0   8  11   0  0  0
 142 110   0  10  11   0  0  0
 143 110   0   8  11   0  0  0
 144 110   0  10  11   0  0  0
 145 110   0   8  11   0  0  0
 146 110   0  10  11   0  0  0
 147 110   0   8  11   0  0  0
 148 110   0  10  11   0  0  0
 149 110   0   8  11   0  0  0
 150 110   0  10  11   0  0  0
 151 110   0   8  11   0  0  0
 152 110   0  10  11   0  0  0
 153 110   0   8  11   0  0  0
 154 110   0  10  11   0  0  0
 155 110   0   8  11   0  0  0
 156 110   0  10  11   0  0  0
 157 110   0   8  11   0  0  0
 158 110   0  10  11   0  0  0
 159 110   0   8  11   0  0  0
 160 110   0  10  11   0  0  0
 161 110   0   8  11   0  0  0
 162 110   0  10  11   0  0  0
 163 110   0   8  11   0  0  0
 164 110   0  10  11   0  0  0
 165 110   0   8  11   0  0  0
 166 110   0  10  11   0  0  0
 167 110   0   8  11   0  0  0
 168 110   0  10  11   0  0  0
 169 110   0   8  11   0  0  0
 170 110   0  10  12   0  0  0
 171 110   0   8   0   0  0  0
 172 948   5   0   0  13  0  0
 173 119   0   0  14   0  0  0
 174 1211   0   0   0   0  0  0
 175 100   0   0   0   0  0  0
 176 110   0   8  15   0  0  0
 177 110   0  10  16   0  0  0
 178 110   0   8  16   0  0  0
 179 110   0  10  16   0  0  0
 180 110   0   8  16   0  0  0
 181 110   0  10  16   0  0  0
 182 110   0   8  16   0  0  0
 183 110   0  10  16   0  0  0
 184 110   0   8  16   0  0  0
 185 110   0  10  16   0  0  0
 186 110   0   8  16   0  0  0
 187 110   0  10  16   0  0  0
 188 110   0   8  16   0  0  0
 189 110   0  10  16   0  0  0
 190 110   0   8  16   0  0  0
 191 110   0  10  16   0  0  0
 192 110   0   8  16   0  0  0
 193 110   0  10  16   0  0  0
 194 110   0   8  16   0  0  0
 195 110   0  10  16   0  0  0
 196 110   0   8  16   0  0  0
 197 110   0  10  16   0  0  0
 198 110   0   8  16   0  0  0
 199 110   0  10  16   0  0  0
 200 110   0   8  16   0  0  0
 201 110   0  10  16   0  0  0
 202 110   0   8  16   0  0  0
 203 110   0  10  16   0  0  0
 204 110   0   8  16   0  0  0
 205 110   0  10  16   0  0  0
 206 110   0   8  16   0  0  0
 207 110   0  10  16   0  0  0
 208 110   0   8  16   0  0  0
 209 110   0  10  16   0  0  0
 210 110   0   8  16   0  0  0
 211 110   0  10  16   0  0  0
 212 110   0   8  16   0  0  0
 213 110   0  10  16   0  0  0
 214 110   0   8  17   0  0  0
 215 414   0  20  19  18  0  0
 216 178682   0   0   0   0  0  0
 217 1225   1   2   3   1  0  0
 218 515   2   0   0   4  0  1
 219 3771   0   0   0   0  0  0
 220 879   3   0   0   5  0  0
 221 1424   0   0   0   0  0  0
 222  96   0   6   7   0  0  0
 223 100   0   0   0   0  0  0
 224  88   0   0   0   0  0  0
 225 110   0   8   9   0  0  0
 226 110   0  10  11   0  0  0
 227 110   0   8  11   0  0  0
 228 110   0  10  11   0  0  0
 229 110   0   8  11   0  0  0
 230 110   0  10  11   0  0  0
 231 110   0   8  11   0  0  0
 232 110   0  10  11   0  0  0
 233 110   0   8  11   0  0  0
 234 110   0  10  11   0  0  0
 235 110   0   8  11   0  0  0
 236 110   0  10  11   0  0  0
 237 110   0   8  11   0  0  0
 238 110   0  10  11   0  0  0
 239 110   0   8  11   0  0  0
 240 110   0  10  11   0  0  0
 241 110   0   8  11   0  0  0
 242 110   0  10  11   0  0  0
 243 110   0   8  11   0  0  0
 244 110   0  10  11   0  0  0
 245 110   0   8  11   0  0  0
 246 110   0  10  11   0  0  0
 247 110   0   8  11   0  0  0
 248 110   0  10  11   0  0  0
 249 110   0   8  11   0  0  0
 250 110   0  10  11   0  0  0
 251 110   0   8  11   0  0  0
 252 110   0  10  11   0  0  0
 253 110   0   8  11   0  0  0
 254 110   0  10  11   0  0  0
 255 110   0   8  11   0  0  0
 256 110   0  10  11   0  0  0
 257 110   0   8  11   0  0  0
 258 110   0  10  11   0  0  0
 259 110   0   8  11   0  0  0
 260 110   0  10  11   0  0  0
 261 110   0   8  11   0  0  0
 262 110   0  10  11   0  0  0
 263 110   0   8  11   0  0  0
 264 110   0  10  11   0  0  0
 265 110   0   8  11   0  0  0
 266 110   0  10  11   0  0  0
 267 110   0   8  11   0  0  0
 268 110   0  10  11   0  0  0
 269 110   0   8  11   0  0  0
 270 110   0  10  11   0  0  0
 271 110   0   8  11   0  0  0
 272 110   0  10  11   0  0  0
 273 110   0   8  11   0  0  0
 274 110   0  10  11   0  0  0
 275 110   0   8  11   0  0  0
 276 110   0  10  11   0  0  0
 277 110   0   8  11   0  0  0
 278 110   0  10  12   0  0  0
 279 110   0   8   0   0  0  0
 280 948   3   0   0  13  0  0
 281 119   0   0  14   0  0  0
 282 1211   0   0   0   0  0  0
 283 100   0   0   0   0  0  0
 284 110   0   8  15   0  0  0
 285 110   0  10  16   0  0  0
 286 110   0   8  16   0  0  0
 287 110   0  10  16   0  0  0
 288 110   0   8  16   0  0  0
 289 110   0  10  16   0  0  0
 290 110   0   8  16   0  0  0
 291 110   0  10  16   0  0  0
 292 110   0   8  16   0  0  0
 293 110   0  10  16   0  0  0
 294 110   0   8  16   0  0  0
 295 110   0  10  16   0  0  0
 296 110   0   8  16   0  0  0
 297 110   0  10  16   0  0  0
 298 110   0   8  16   0  0  0
 299 110   0  10  16   0  0  0
 300 110   0   8  16   0  0  0
 301 110   0  10  16   0  0  0
 302 110   0   8  16   0  0  0
 303 110   0  10  16   0  0  0
 304 110   0   8  16   0  0  0
 305 110   0  10  16   0  0  0
 306 110   0   8  16   0  0  0
 307 110   0  10  16   0  0  0
 308 110   0   8  16   0  0  0
 309 110   0  10  16   0  0  0
 310 110   0   8  16   0  0  0
 311 110   0  10  16   0  0  0
[RF]
1      112.796 1 2 0 100 -406.047 10.2051
2      197.491 3 4 0 100 -600 10.9956
3      394.982 3 4 0 2240 600 -9.42478
4      197.491 3 4 0 100 600 -7.85398
5      394.982 3 4 0 2240 -600 9.42478

# Format of arbitrary gradients:
#   time_shape_id of 0 means default timing (stepping with grad_raster starting at 1/2 of grad_raster)
# id amplitude amp_shape_id time_shape_id delay
# ..      Hz/m       ..         ..          us
[GRADIENTS]
5       977451 5 6 0
9      -227273 7 8 1030
11      -227273 9 10 0
12      -227273 11 12 0
13       976911 13 14 0
15      -113636 7 15 1070
16      -113636 9 16 0
17      -113636 11 17 0

# Format of trapezoid gradients:
# id amplitude rise flat fall delay
# ..      Hz/m   us   us   us    us
[TRAP]
 1  1.82768e+06 310 3520 310 8110
 2  1.81818e+06 310  240 310 8720
 3  1.82927e+06 310 1330 310 9030
 4      -266667  50 5000  50  50
 6      -933675 190  580 190   0
 7       595238 120  720 120   0
 8  1.82008e+06 310  480 310   0
10 -1.82008e+06 310  480 310   0
14      -577740 120  950 120   0
18 -1.82768e+06 310 3520 310   0
19 -1.82927e+06 310 1330 310 920
20 -1.81818e+06 310  240 310 610
21            0 310 13620 310   0
22       600649 120  720 120   0
23      -578902 120  940 120   0
24       606061 120  720 120   0
25      -580087 120  930 120   0
26       611472 120  720 120   0
27      -575758 120  930 120   0
28       616883 120  720 120   0
29      -576923 120  920 120   0
30  1.76601e+06 310 13620 310   0
31           -0 310 13620 310   0
32 -1.76601e+06 310 13620 310   0

# Format of ADC events:
# id num dwell delay freq phase
# ..  ..    ns    us   Hz   rad
[ADC]
1 400 2400 70 0 0

# Format of extension lists:
# id type ref next_id
# next_id of 0 terminates the list
# Extension list is followed by extension specifications
[EXTENSIONS]
1 1 1 0
2 2 1 0
3 2 2 0
4 2 3 0
5 2 4 0
6 2 5 0
7 2 6 6
8 3 1 0
9 2 6 0
10 2 7 9
11 3 2 0
12 3 3 0
13 3 4 0
14 3 5 0

# Extension specification for digital output and input triggers:
# id type channel delay (us) duration (us)
extension TRIGGERS 1
1 1 1 0 100

# Extension specification for setting labels:
# id set labelstring
extension LABELSET 2
1 0 REP
2 0 PHS
3 0 SEG
4 0 SET
5 0 NAV
6 0 LIN
7 1 NAV

# Extension specification for increasing labels:
# id set labelstring
extension LABELINC 3
1 1 LIN
2 1 SET
3 1 SEG
4 1 PHS
5 1 REP

# Sequence Shapes
[SHAPES]

shape_id 1
num_samples 8000
0.000252166652
0.000253213472
0.000254264375
0.000255319374
0.000256378485
0.000257441723
0.000258509103
0.000259580639
0.000260656347
0.000261736241
0.000262820337
0.00026390865
0.000265001195
0.000266097988
0.000267199043
0.000268304375
0.000269414002
0.000270527937
0.000271646196
0.000272768796
0.000273895751
0.000275027077
0.000276162789
0.000277302905
0.000278447439
0.000279596407
0.000280749825
0.00028190771
0.000283070076
0.000284236941
0.000285408321
0.00028658423
0.000287764687
0.000288949707
0.000290139306
0.0002913335
0.000292532307
0.000293735743
0.000294943824
0.000296156566
0.000297373987
0.000298596103
0.000299822932
0.000301054488
0.000302290791
0.000303531856
0.000304777701
0.000306028342
0.000307283796
0.000308544082
0.000309809215
0.000311079214
0.000312354095
0.000313633876
0.000314918574
0.000316208207
0.000317502793
0.000318802348
0.000320106891
0.000321416439
0.00032273101
0.000324050622
0.000325375292
0.000326705039
0.000328039881
0.000329379835
0.000330724921
0.000332075155
0.000333430556
0.000334791142
0.000336156933
0.000337527945
0.000338904198
0.00034028571
0.0003416725
0.000343064586
0.000344461987
0.000345864721
0.000347272809
0.000348686267
0.000350105116
0.000351529374
0.000352959061
0.000354394195
0.000355834796
0.000357280883
0.000358732474
0.000360189591
0.000361652251
0.000363120475
0.000364594281
0.00036607369
0.000367558722
0.000369049395
0.00037054573
0.000372047747
0.000373555465
0.000375068904
0.000376588085
0.000378113028
0.000379643752
0.000381180279
0.000382722627
0.000384270818
0.000385824873
0.000387384811
0.000388950653
0.000390522419
0.000392100131
0.00039368381
0.000395273475
0.000396869148
0.00039847085
0.000400078601
0.000401692423
0.000403312338
0.000404938365
0.000406570527
0.000408208845
0.00040985334
0.000411504033
0.000413160947
0.000414824103
0.000416493522
0.000418169226
0.000419851237
0.000421539577
0.000423234268
0.000424935332
0.000426642791
0.000428356667
0.000430076982
0.000431803759
0.00043353702
0.000435276787
0.000437023083
0.00043877593
0.000440535352
0.000442301371
0.000444074009
0.000445853289
0.000447639235
0.000449431869
0.000451231214
0.000453037295
0.000454850132
0.000456669751
0.000458496175
0.000460329426
0.000462169528
0.000464016505
0.000465870381
0.000467731179
0.000469598923
0.000471473636
0.000473355344
0.000475244069
0.000477139837
0.00047904267
0.000480952593
0.000482869631
0.000484793808
0.000486725149
0.000488663677
0.000490609418
0.000492562396
0.000494522636
0.000496490163
0.000498465002
0.000500447177
0.000502436714
0.000504433638
0.000506437974
0.000508449747
0.000510468983
0.000512495707
0.000514529945
0.000516571722
0.000518621065
0.000520677998
0.000522742547
0.00052481474
0.0005268946
0.000528982156
0.000531077431
0.000533180454
0.000535291251
0.000537409846
0.000539536268
0.000541670543
0.000543812697
0.000545962757
0.00054812075
0.000550286703
0.000552460642
0.000554642595
0.000556832588
0.00055903065
0.000561236807
0.000563451087
0.000565673517
0.000567904124
0.000570142937
0.000572389983
0.000574645289
0.000576908884
0.000579180796
0.000581461052
0.000583749681
0.000586046711
0.00058835217
0.000590666087
0.00059298849
0.000595319407
0.000597658868
0.0006000069
0.000602363534
0.000604728797
0.000607102718
0.000609485328
0.000611876654
0.000614276726
0.000616685573
0.000619103225
0.000621529712
0.000623965062
0.000626409306
0.000628862474
0.000631324594
0.000633795698
0.000636275815
0.000638764975
0.000641263208
0.000643770545
0.000646287017
0.000648812653
0.000651347484
0.000653891541
0.000656444855
0.000659007457
0.000661579376
0.000664160645
0.000666751295
0.000669351357
0.000671960861
0.00067457984
0.000677208326
0.000679846348
0.00068249394
0.000685151133
0.000687817959
0.000690494449
0.000693180637
0.000695876553
0.000698582231
0.000701297702
0.000704022999
0.000706758155
0.000709503202
0.000712258173
0.000715023101
0.000717798018
0.000720582958
0.000723377954
0.000726183039
0.000728998246
0.000731823608
0.00073465916
0.000737504934
0.000740360965
0.000743227286
0.000746103931
0.000748990934
0.00075188833
0.000754796151
0.000757714434
0.000760643211
0.000763582518
0.000766532389
0.000769492859
0.000772463962
0.000775445734
0.00077843821
0.000781441423
0.000784455411
0.000787480208
0.000790515849
0.00079356237
0.000796619807
0.000799688195
0.00080276757
0.000805857968
0.000808959425
0.000812071977
0.00081519566
0.000818330511
0.000821476567
0.000824633863
0.000827802436
0.000830982323
0.000834173562
0.000837376188
0.000840590239
0.000843815753
0.000847052765
0.000850301315
0.000853561439
0.000856833175
0.000860116561
0.000863411634
0.000866718433
0.000870036995
0.000873367358
0.000876709562
0.000880063644
0.000883429642
0.000886807596
0.000890197544
0.000893599525
0.000897013577
0.000900439741
0.000903878054
0.000907328557
0.000910791288
0.000914266287
0.000917753594
0.000921253248
0.000924765289
0.000928289757
0.000931826693
0.000935376136
0.000938938126
0.000942512705
0.000946099912
0.000949699788
0.000953312373
0.00095693771
0.000960575838
0.000964226799
0.000967890634
0.000971567384
0.00097525709
0.000978959795
0.00098267554
0.000986404366
0.000990146316
0.000993901432
0.000997669755
0.00100145133
0.00100524619
0.00100905439
0.00101287597
0.00101671097
0.00102055943
0.0010244214
0.00102829691
0.00103218602
0.00103608876
0.00104000519
0.00104393533
0.00104787925
0.00105183697
0.00105580854
0.00105979402
0.00106379343
0.00106780684
0.00107183427
0.00107587578
0.00107993141
0.00108400121
0.00108808522
0.00109218348
0.00109629604
0.00110042295
0.00110456424
0.00110871998
0.0011128902
0.00111707494
0.00112127426
0.0011254882
0.00112971681
0.00113396013
0.0011382182
0.00114249109
0.00114677882
0.00115108146
0.00115539904
0.00115973162
0.00116407923
0.00116844194
0.00117281978
0.0011772128
0.00118162105
0.00118604458
0.00119048344
0.00119493767
0.00119940733
0.00120389246
0.00120839311
0.00121290933
0.00121744116
0.00122198866
0.00122655188
0.00123113086
0.00123572566
0.00124033632
0.00124496289
0.00124960542
0.00125426397
0.00125893858
0.00126362931
0.0012683362
0.0012730593
0.00127779867
0.00128255435
0.0012873264
0.00129211486
0.00129691979
0.00130174125
0.00130657927
0.00131143391
0.00131630523
0.00132119328
0.0013260981
0.00133101975
0.00133595829
0.00134091376
0.00134588622
0.00135087571
0.0013558823
0.00136090604
0.00136594697
0.00137100515
0.00137608064
0.00138117349
0.00138628375
0.00139141148
0.00139655673
0.00140171955
0.0014069
0.00141209814
0.00141731401
0.00142254767
0.00142779918
0.00143306859
0.00143835596
0.00144366135
0.0014489848
0.00145432637
0.00145968612
0.00146506411
0.00147046039
0.00147587501
0.00148130804
0.00148675953
0.00149222954
0.00149771812
0.00150322533
0.00150875123
0.00151429587
0.00151985931
0.00152544162
0.00153104284
0.00153666303
0.00154230226
0.00154796058
0.00155363805
0.00155933473
0.00156505067
0.00157078594
0.00157654059
0.00158231469
0.00158810829
0.00159392145
0.00159975423
0.0016056067
0.0016114789
0.00161737091
0.00162328278
0.00162921456
0.00163516633
0.00164113815
0.00164713006
0.00165314214
0.00165917445
0.00166522704
0.00167129998
0.00167739334
0.00168350716
0.00168964151
0.00169579647
0.00170197208
0.00170816841
0.00171438552
0.00172062348
0.00172688234
0.00173316218
0.00173946305
0.00174578503
0.00175212816
0.00175849252
0.00176487816
0.00177128517
0.00177771358
0.00178416349
0.00179063493
0.00179712799
0.00180364273
0.0018101792
0.00181673748
0.00182331764
0.00182991973
0.00183654382
0.00184318999
0.00184985829
0.00185654879
0.00186326155
0.00186999666
0.00187675416
0.00188353413
0.00189033664
0.00189716175
0.00190400952
0.00191088004
0.00191777336
0.00192468956
0.00193162869
0.00193859084
0.00194557606
0.00195258443
0.00195961601
0.00196667088
0.00197374911
0.00198085075
0.00198797589
0.0019951246
0.00200229693
0.00200949297
0.00201671278
0.00202395643
0.00203122399
0.00203851554
0.00204583115
0.00205317088
0.00206053481
0.00206792301
0.00207533555
0.0020827725
0.00209023394
0.00209771994
0.00210523056
0.00211276589
0.00212032599
0.00212791094
0.00213552081
0.00214315568
0.00215081561
0.00215850068
0.00216621097
0.00217394655
0.0021817075
0.00218949388
0.00219730577
0.00220514325
0.0022130064
0.00222089528
0.00222880998
0.00223675056
0.00224471711
0.0022527097
0.00226072841
0.00226877331
0.00227684448
0.00228494199
0.00229306593
0.00230121637
0.00230939338
0.00231759705
0.00232582745
0.00233408467
0.00234236877
0.00235067984
0.00235901795
0.00236738319
0.00237577563
0.00238419535
0.00239264243
0.00240111695
0.002409619
0.00241814864
0.00242670596
0.00243529104
0.00244390396
0.0024525448
0.00246121364
0.00246991057
0.00247863566
0.00248738899
0.00249617066
0.00250498072
0.00251381928
0.00252268642
0.0025315822
0.00254050673
0.00254946007
0.00255844232
0.00256745356
0.00257649386
0.00258556332
0.00259466202
0.00260379004
0.00261294746
0.00262213437
0.00263135086
0.002640597
0.00264987289
0.00265917862
0.00266851425
0.00267787989
0.00268727561
0.0026967015
0.00270615766
0.00271564416
0.00272516109
0.00273470854
0.0027442866
0.00275389535
0.00276353488
0.00277320528
0.00278290663
0.00279263904
0.00280240257
0.00281219733
0.00282202339
0.00283188086
0.00284176981
0.00285169034
0.00286164254
0.0028716265
0.00288164231
0.00289169005
0.00290176982
0.00291188172
0.00292202582
0.00293220222
0.00294241102
0.0029526523
0.00296292615
0.00297323268
0.00298357196
0.0029939441
0.00300434918
0.0030147873
0.00302525856
0.00303576304
0.00304630083
0.00305687204
0.00306747676
0.00307811507
0.00308878708
0.00309949288
0.00311023257
0.00312100623
0.00313181397
0.00314265588
0.00315353206
0.0031644426
0.0031753876
0.00318636715
0.00319738135
0.0032084303
0.0032195141
0.00323063285
0.00324178663
0.00325297555
0.00326419971
0.0032754592
0.00328675413
0.00329808459
0.00330945068
0.0033208525
0.00333229015
0.00334376373
0.00335527334
0.00336681907
0.00337840104
0.00339001934
0.00340167407
0.00341336534
0.00342509323
0.00343685786
0.00344865933
0.00346049774
0.00347237319
0.00348428578
0.00349623562
0.00350822281
0.00352024745
0.00353230965
0.0035444095
0.00355654712
0.00356872261
0.00358093607
0.00359318761
0.00360547732
0.00361780533
0.00363017172
0.00364257662
0.00365502011
0.00366750232
0.00368002334
0.00369258328
0.00370518225
0.00371782036
0.00373049771
0.00374321441
0.00375597057
0.0037687663
0.0037816017
0.00379447688
0.00380739196
0.00382034703
0.00383334222
0.00384637763
0.00385945336
0.00387256954
0.00388572626
0.00389892364
0.0039121618
0.00392544083
0.00393876086
0.00395212199
0.00396552434
0.00397896801
0.00399245313
0.0040059798
0.00401954813
0.00403315824
0.00404681024
0.00406050425
0.00407424038
0.00408801874
0.00410183944
0.00411570261
0.00412960835
0.00414355678
0.00415754802
0.00417158218
0.00418565938
0.00419977973
0.00421394336
0.00422815036
0.00424240087
0.00425669501
0.00427103287
0.0042854146
0.00429984029
0.00431431008
0.00432882408
0.0043433824
0.00435798517
0.00437263251
0.00438732453
0.00440206136
0.00441684311
0.00443166991
0.00444654187
0.00446145912
0.00447642177
0.00449142995
0.00450648379
0.00452158339
0.00453672889
0.0045519204
0.00456715806
0.00458244197
0.00459777227
0.00461314907
0.00462857251
0.0046440427
0.00465955977
0.00467512385
0.00469073505
0.00470639351
0.00472209935
0.00473785269
0.00475365366
0.00476950239
0.00478539899
0.00480134361
0.00481733637
0.00483337738
0.00484946679
0.00486560472
0.00488179129
0.00489802664
0.00491431089
0.00493064417
0.00494702661
0.00496345834
0.00497993949
0.00499647019
0.00501305057
0.00502968076
0.0050463609
0.0050630911
0.00507987151
0.00509670225
0.00511358346
0.00513051526
0.0051474978
0.0051645312
0.0051816156
0.00519875113
0.00521593793
0.00523317612
0.00525046584
0.00526780722
0.00528520041
0.00530264554
0.00532014273
0.00533769213
0.00535529387
0.00537294809
0.00539065493
0.00540841451
0.00542622698
0.00544409248
0.00546201114
0.00547998311
0.00549800851
0.00551608748
0.00553422018
0.00555240672
0.00557064727
0.00558894194
0.00560729089
0.00562569425
0.00564415216
0.00566266477
0.00568123222
0.00569985464
0.00571853217
0.00573726497
0.00575605317
0.00577489692
0.00579379635
0.00581275161
0.00583176285
0.0058508302
0.00586995382
0.00588913384
0.00590837041
0.00592766367
0.00594701378
0.00596642087
0.00598588509
0.00600540658
0.0060249855
0.00604462199
0.0060643162
0.00608406827
0.00610387835
0.00612374659
0.00614367314
0.00616365814
0.00618370175
0.00620380411
0.00622396537
0.00624418568
0.0062644652
0.00628480406
0.00630520244
0.00632566046
0.00634617829
0.00636675607
0.00638739396
0.00640809211
0.00642885067
0.0064496698
0.00647054965
0.00649149036
0.0065124921
0.00653355502
0.00655467927
0.006575865
0.00659711238
0.00661842155
0.00663979268
0.00666122591
0.00668272141
0.00670427933
0.00672589982
0.00674758305
0.00676932916
0.00679113833
0.0068130107
0.00683494644
0.00685694569
0.00687900863
0.00690113541
0.00692332619
0.00694558114
0.0069679004
0.00699028414
0.00701273252
0.0070352457
0.00705782385
0.00708046712
0.00710317568
0.00712594969
0.00714878931
0.0071716947
0.00719466603
0.00721770347
0.00724080717
0.00726397729
0.00728721402
0.0073105175
0.0073338879
0.00735732539
0.00738083014
0.00740440231
0.00742804207
0.00745174958
0.00747552501
0.00749936853
0.00752328031
0.00754726051
0.00757130931
0.00759542686
0.00761961335
0.00764386894
0.00766819379
0.00769258809
0.00771705199
0.00774158567
0.00776618931
0.00779086307
0.00781560712
0.00784042163
0.00786530679
0.00789026275
0.0079152897
0.00794038781
0.00796555724
0.00799079818
0.0080161108
0.00804149527
0.00806695177
0.00809248047
0.00811808155
0.00814375519
0.00816950155
0.00819532083
0.00822121318
0.0082471788
0.00827321785
0.00829933052
0.00832551699
0.00835177743
0.00837811202
0.00840452094
0.00843100437
0.00845756249
0.00848419548
0.00851090353
0.0085376868
0.00856454549
0.00859147977
0.00861848983
0.00864557585
0.00867273801
0.00869997649
0.00872729148
0.00875468316
0.00878215171
0.00880969732
0.00883732018
0.00886502046
0.00889279836
0.00892065406
0.00894858774
0.00897659959
0.0090046898
0.00903285855
0.00906110603
0.00908943244
0.00911783795
0.00914632276
0.00917488705
0.00920353101
0.00923225484
0.00926105871
0.00928994283
0.00931890739
0.00934795256
0.00937707855
0.00940628554
0.00943557374
0.00946494332
0.00949439448
0.00952392741
0.00955354232
0.00958323938
0.0096130188
0.00964288077
0.00967282548
0.00970285313
0.00973296391
0.00976315802
0.00979343565
0.009823797
0.00985424228
0.00988477166
0.00991538536
0.00994608356
0.00997686648
0.0100077343
0.0100386872
0.0100697254
0.0101008492
0.0101320586
0.0101633539
0.0101947354
0.0102262031
0.0102577573
0.0102893983
0.0103211261
0.0103529411
0.0103848434
0.0104168331
0.0104489106
0.0104810761
0.0105133296
0.0105456715
0.0105781019
0.0106106211
0.0106432292
0.0106759264
0.010708713
0.0107415892
0.0107745551
0.010807611
0.0108407571
0.0108739936
0.0109073207
0.0109407386
0.0109742475
0.0110078477
0.0110415393
0.0110753225
0.0111091976
0.0111431647
0.0111772241
0.011211376
0.0112456207
0.0112799582
0.0113143888
0.0113489128
0.0113835304
0.0114182417
0.011453047
0.0114879465
0.0115229404
0.0115580289
0.0115932122
0.0116284906
0.0116638643
0.0116993335
0.0117348983
0.0117705591
0.011806316
0.0118421693
0.0118781192
0.0119141658
0.0119503095
0.0119865503
0.0120228887
0.0120593247
0.0120958586
0.0121324906
0.0121692209
0.0122060498
0.0122429775
0.0122800042
0.0123171301
0.0123543554
0.0123916804
0.0124291053
0.0124666303
0.0125042557
0.0125419816
0.0125798083
0.012617736
0.0126557649
0.0126938953
0.0127321275
0.0127704615
0.0128088977
0.0128474362
0.0128860774
0.0129248214
0.0129636684
0.0130026188
0.0130416726
0.0130808302
0.0131200918
0.0131594576
0.0131989278
0.0132385027
0.0132781826
0.0133179675
0.0133578578
0.0133978537
0.0134379555
0.0134781633
0.0135184774
0.0135588981
0.0135994255
0.01364006
0.0136808016
0.0137216508
0.0137626076
0.0138036725
0.0138448455
0.0138861269
0.013927517
0.013969016
0.0140106241
0.0140523416
0.0140941687
0.0141361057
0.0141781528
0.0142203102
0.0142625781
0.0143049569
0.0143474468
0.0143900479
0.0144327606
0.0144755851
0.0145185216
0.0145615704
0.0146047317
0.0146480057
0.0146913928
0.0147348931
0.0147785069
0.0148222344
0.0148660759
0.0149100317
0.0149541019
0.0149982868
0.0150425868
0.0150870019
0.0151315325
0.0151761788
0.0152209411
0.0152658195
0.0153108145
0.0153559262
0.0154011548
0.0154465006
0.0154919639
0.0155375449
0.0155832439
0.0156290611
0.0156749968
0.0157210512
0.0157672245
0.0158135171
0.0158599292
0.015906461
0.0159531129
0.0159998849
0.0160467775
0.0160937909
0.0161409252
0.0161881808
0.016235558
0.016283057
0.0163306779
0.0163784212
0.0164262871
0.0164742758
0.0165223875
0.0165706227
0.0166189814
0.0166674639
0.0167160706
0.0167648017
0.0168136574
0.016862638
0.0169117438
0.016960975
0.0170103319
0.0170598148
0.0171094239
0.0171591594
0.0172090218
0.0172590111
0.0173091277
0.0173593719
0.0174097439
0.0174602439
0.0175108723
0.0175616293
0.0176125152
0.0176635302
0.0177146747
0.0177659488
0.0178173529
0.0178688872
0.017920552
0.0179723475
0.0180242741
0.018076332
0.0181285215
0.0181808428
0.0182332962
0.018285882
0.0183386005
0.0183914519
0.0184444366
0.0184975547
0.0185508065
0.0186041924
0.0186577127
0.0187113674
0.0187651571
0.0188190819
0.0188731421
0.0189273379
0.0189816698
0.0190361379
0.0190907425
0.0191454839
0.0192003623
0.0192553782
0.0193105317
0.019365823
0.0194212526
0.0194768207
0.0195325275
0.0195883733
0.0196443585
0.0197004833
0.0197567479
0.0198131528
0.019869698
0.019926384
0.0199832111
0.0200401794
0.0200972893
0.0201545411
0.020211935
0.0202694714
0.0203271505
