# Pulseq sequence file
# Created by MATLAB mr toolbox

[VERSION]
major 1
minor 4
revision 1

[DEFINITIONS]
AdcRasterTime 1e-07 
BlockDurationRaster 1e-05 
FOV 0.22 0.22 0.006 
GradientRasterTime 1e-05 
Name gre 
RadiofrequencyRasterTime 1e-06 
TotalDuration 3.89832 

# Format of blocks:
# NUM DUR RF  GX  GY  GZ  ADC  EXT
[BLOCKS]
  1 1434   1   0   0   1  0  0
  2 319   2   0   0   2  0  0
  3 100   0   3   4   5  0  0
  4  78   0   0   0   0  0  0
  5 326   0   6   0   0  0  0
  6 377   0   7   8   9  0  0
  7 1434   1   0   0   1  0  0
  8 319   3   0   0   2  0  0
  9 100   0   3  10   5  0  0
 10  78   0   0   0   0  0  0
 11 326   0   6   0   0  0  0
 12 377   0   7  11   9  0  0
 13 1434   1   0   0   1  0  0
 14 319   4   0   0   2  0  0
 15 100   0   3  12   5  0  0
 16  78   0   0   0   0  0  0
 17 326   0   6   0   0  0  0
 18 377   0   7  13   9  0  0
 19 1434   1   0   0   1  0  0
 20 319   5   0   0   2  0  0
 21 100   0   3  14   5  0  0
 22  78   0   0   0   0  0  0
 23 326   0   6   0   0  0  0
 24 377   0   7  15   9  0  0
 25 1434   1   0   0   1  0  0
 26 319   6   0   0   2  0  0
 27 100   0   3  16   5  0  0
 28  78   0   0   0   0  0  0
 29 326   0   6   0   0  0  0
 30 377   0   7  17   9  0  0
 31 1434   1   0   0   1  0  0
 32 319   7   0   0   2  0  0
 33 100   0   3  18   5  0  0
 34  78   0   0   0   0  0  0
 35 326   0   6   0   0  0  0
 36 377   0   7  19   9  0  0
 37 1434   1   0   0   1  0  0
 38 319   8   0   0   2  0  0
 39 100   0   3  20   5  0  0
 40  78   0   0   0   0  0  0
 41 326   0   6   0   0  0  0
 42 377   0   7  21   9  0  0
 43 1434   1   0   0   1  0  0
 44 319   9   0   0   2  0  0
 45 100   0   3  22   5  0  0
 46  78   0   0   0   0  0  0
 47 326   0   6   0   0  0  0
 48 377   0   7  23   9  0  0
 49 1434   1   0   0   1  0  0
 50 319  10   0   0   2  0  0
 51 100   0   3  24   5  0  0
 52  78   0   0   0   0  0  0
 53 326   0   6   0   0  0  0
 54 377   0   7  25   9  0  0
 55 1434   1   0   0   1  0  0
 56 319  11   0   0   2  0  0
 57 100   0   3  26   5  0  0
 58  78   0   0   0   0  0  0
 59 326   0   6   0   0  0  0
 60 377   0   7  27   9  0  0
 61 1434   1   0   0   1  0  0
 62 319   7   0   0   2  0  0
 63 100   0   3  25   5  0  0
 64  78   0   0   0   0  0  0
 65 326   0   6   0   0  1  0
 66 377   0   7  24   9  0  0
 67 1434   1   0   0   1  0  0
 68 319  12   0   0   2  0  0
 69 100   0   3  23   5  0  0
 70  78   0   0   0   0  0  0
 71 326   0   6   0   0  2  0
 72 377   0   7  22   9  0  0
 73 1434   1   0   0   1  0  0
 74 319  13   0   0   2  0  0
 75 100   0   3  21   5  0  0
 76  78   0   0   0   0  0  0
 77 326   0   6   0   0  3  0
 78 377   0   7  20   9  0  0
 79 1434   1   0   0   1  0  0
 80 319  14   0   0   2  0  0
 81 100   0   3  19   5  0  0
 82  78   0   0   0   0  0  0
 83 326   0   6   0   0  4  0
 84 377   0   7  18   9  0  0
 85 1434   1   0   0   1  0  0
 86 319  15   0   0   2  0  0
 87 100   0   3  17   5  0  0
 88  78   0   0   0   0  0  0
 89 326   0   6   0   0  5  0
 90 377   0   7  16   9  0  0
 91 1434   1   0   0   1  0  0
 92 319   2   0   0   2  0  0
 93 100   0   3  15   5  0  0
 94  78   0   0   0   0  0  0
 95 326   0   6   0   0  6  0
 96 377   0   7  14   9  0  0
 97 1434   1   0   0   1  0  0
 98 319  16   0   0   2  0  0
 99 100   0   3  13   5  0  0
100  78   0   0   0   0  0  0
101 326   0   6   0   0  7  0
102 377   0   7  12   9  0  0
103 1434   1   0   0   1  0  0
104 319  17   0   0   2  0  0
105 100   0   3  11   5  0  0
106  78   0   0   0   0  0  0
107 326   0   6   0   0  8  0
108 377   0   7  10   9  0  0
109 1434   1   0   0   1  0  0
110 319  14   0   0   2  0  0
111 100   0   3   8   5  0  0
112  78   0   0   0   0  0  0
113 326   0   6   0   0  4  0
114 377   0   7   4   9  0  0
115 1434   1   0   0   1  0  0
116 319  18   0   0   2  0  0
117 100   0   3  28   5  0  0
118  78   0   0   0   0  0  0
119 326   0   6   0   0  9  0
120 377   0   7  29   9  0  0
121 1434   1   0   0   1  0  0
122 319   6   0   0   2  0  0
123 100   0   3  30   5  0  0
124  78   0   0   0   0  0  0
125 326   0   6   0   0 10  0
126 377   0   7  31   9  0  0
127 1434   1   0   0   1  0  0
128 319  19   0   0   2  0  0
129 100   0   3  32   5  0  0
130  78   0   0   0   0  0  0
131 326   0   6   0   0 11  0
132 377   0   7  33   9  0  0
133 1434   1   0   0   1  0  0
134 319  20   0   0   2  0  0
135 100   0   3  34   5  0  0
136  78   0   0   0   0  0  0
137 326   0   6   0   0 12  0
138 377   0   7  35   9  0  0
139 1434   1   0   0   1  0  0
140 319  10   0   0   2  0  0
141 100   0   3  36   5  0  0
142  78   0   0   0   0  0  0
143 326   0   6   0   0 13  0
144 377   0   7  37   9  0  0
145 1434   1   0   0   1  0  0
146 319  21   0   0   2  0  0
147 100   0   3  38   5  0  0
148  78   0   0   0   0  0  0
149 326   0   6   0   0 14  0
150 377   0   7  39   9  0  0
151 1434   1   0   0   1  0  0
152 319  11   0   0   2  0  0
153 100   0   3  40   5  0  0
154  78   0   0   0   0  0  0
155 326   0   6   0   0 15  0
156 377   0   7  41   9  0  0
157 1434   1   0   0   1  0  0
158 319  19   0   0   2  0  0
159 100   0   3  42   5  0  0
160  78   0   0   0   0  0  0
161 326   0   6   0   0 11  0
162 377   0   7  43   9  0  0
163 1434   1   0   0   1  0  0
164 319  22   0   0   2  0  0
165 100   0   3  44   5  0  0
166  78   0   0   0   0  0  0
167 326   0   6   0   0 16  0
168 377   0   7  45   9  0  0
169 1434   1   0   0   1  0  0
170 319   5   0   0   2  0  0
171 100   0   3  46   5  0  0
172  78   0   0   0   0  0  0
173 326   0   6   0   0 17  0
174 377   0   7  47   9  0  0
175 1434   1   0   0   1  0  0
176 319  23   0   0   2  0  0
177 100   0   3  48   5  0  0
178  78   0   0   0   0  0  0
179 326   0   6   0   0 18  0
180 377   0   7  49   9  0  0
181 1434   1   0   0   1  0  0
182 319  15   0   0   2  0  0
183 100   0   3  50   5  0  0
184  78   0   0   0   0  0  0
185 326   0   6   0   0  5  0
186 377   0   7  51   9  0  0
187 1434   1   0   0   1  0  0
188 319  16   0   0   2  0  0
189 100   0   3  52   5  0  0
190  78   0   0   0   0  0  0
191 326   0   6   0   0  7  0
192 377   0   7  53   9  0  0
193 1434   1   0   0   1  0  0
194 319  24   0   0   2  0  0
195 100   0   3  54   5  0  0
196  78   0   0   0   0  0  0
197 326   0   6   0   0 19  0
198 377   0   7  55   9  0  0
199 1434   1   0   0   1  0  0
200 319   3   0   0   2  0  0
201 100   0   3  56   5  0  0
202  78   0   0   0   0  0  0
203 326   0   6   0   0 20  0
204 377   0   7  57   9  0  0
205 1434   1   0   0   1  0  0
206 319  23   0   0   2  0  0
207 100   0   3  58   5  0  0
208  78   0   0   0   0  0  0
209 326   0   6   0   0 18  0
210 377   0   7  59   9  0  0
211 1434   1   0   0   1  0  0
212 319  18   0   0   2  0  0
213 100   0   3  60   5  0  0
214  78   0   0   0   0  0  0
215 326   0   6   0   0  9  0
216 377   0   7  61   9  0  0
217 1434   1   0   0   1  0  0
218 319  12   0   0   2  0  0
219 100   0   3  62   5  0  0
220  78   0   0   0   0  0  0
221 326   0   6   0   0  2  0
222 377   0   7  63   9  0  0
223 1434   1   0   0   1  0  0
224 319  25   0   0   2  0  0
225 100   0   3  64   5  0  0
226  78   0   0   0   0  0  0
227 326   0   6   0   0 21  0
228 377   0   7  65   9  0  0
229 1434   1   0   0   1  0  0
230 319   8   0   0   2  0  0
231 100   0   3  66   5  0  0
232  78   0   0   0   0  0  0
233 326   0   6   0   0 22  0
234 377   0   7  67   9  0  0
235 1434   1   0   0   1  0  0
236 319  21   0   0   2  0  0
237 100   0   3  68   5  0  0
238  78   0   0   0   0  0  0
239 326   0   6   0   0 14  0
240 377   0   7  69   9  0  0
241 1434   1   0   0   1  0  0
242 319  21   0   0   2  0  0
243 100   0   3  70   5  0  0
244  78   0   0   0   0  0  0
245 326   0   6   0   0 14  0
246 377   0   7  71   9  0  0
247 1434   1   0   0   1  0  0
248 319   8   0   0   2  0  0
249 100   0   3  72   5  0  0
250  78   0   0   0   0  0  0
251 326   0   6   0   0 22  0
252 377   0   7  73   9  0  0
253 1434   1   0   0   1  0  0
254 319  25   0   0   2  0  0
255 100   0   3  71   5  0  0
256  78   0   0   0   0  0  0
257 326   0   6   0   0 21  0
258 377   0   7  70   9  0  0
259 1434   1   0   0   1  0  0
260 319  12   0   0   2  0  0
261 100   0   3  69   5  0  0
262  78   0   0   0   0  0  0
263 326   0   6   0   0  2  0
264 377   0   7  68   9  0  0
265 1434   1   0   0   1  0  0
266 319  18   0   0   2  0  0
267 100   0   3  67   5  0  0
268  78   0   0   0   0  0  0
269 326   0   6   0   0  9  0
270 377   0   7  66   9  0  0
271 1434   1   0   0   1  0  0
272 319  23   0   0   2  0  0
273 100   0   3  65   5  0  0
274  78   0   0   0   0  0  0
275 326   0   6   0   0 18  0
276 377   0   7  64   9  0  0
277 1434   1   0   0   1  0  0
278 319   3   0   0   2  0  0
279 100   0   3  63   5  0  0
280  78   0   0   0   0  0  0
281 326   0   6   0   0 20  0
282 377   0   7  62   9  0  0
283 1434   1   0   0   1  0  0
284 319  24   0   0   2  0  0
285 100   0   3  61   5  0  0
286  78   0   0   0   0  0  0
287 326   0   6   0   0 19  0
288 377   0   7  60   9  0  0
289 1434   1   0   0   1  0  0
290 319  16   0   0   2  0  0
291 100   0   3  59   5  0  0
292  78   0   0   0   0  0  0
293 326   0   6   0   0  7  0
294 377   0   7  58   9  0  0
295 1434   1   0   0   1  0  0
296 319  15   0   0   2  0  0
297 100   0   3  57   5  0  0
298  78   0   0   0   0  0  0
299 326   0   6   0   0  5  0
300 377   0   7  56   9  0  0
301 1434   1   0   0   1  0  0
302 319  23   0   0   2  0  0
303 100   0   3  55   5  0  0
304  78   0   0   0   0  0  0
305 326   0   6   0   0 18  0
306 377   0   7  54   9  0  0
307 1434   1   0   0   1  0  0
308 319   5   0   0   2  0  0
309 100   0   3  53   5  0  0
310  78   0   0   0   0  0  0
311 326   0   6   0   0 17  0
312 377   0   7  52   9  0  0
313 1434   1   0   0   1  0  0
314 319  22   0   0   2  0  0
315 100   0   3  51   5  0  0
316  78   0   0   0   0  0  0
317 326   0   6   0   0 16  0
318 377   0   7  50   9  0  0
319 1434   1   0   0   1  0  0
320 319  19   0   0   2  0  0
[RF]
1      112.796 1 2 0 100 -406.047 0
2      36.5724 3 4 0 100 1000 0
3      36.5724 3 4 0 100 1000 2.04204
4      36.5724 3 4 0 100 1000 6.12611
5      36.5724 3 4 0 100 1000 5.96903
6      36.5724 3 4 0 100 1000 1.5708
7      36.5724 3 4 0 100 1000 5.49779
8      36.5724 3 4 0 100 1000 5.18363
9      36.5724 3 4 0 100 1000 0.628319
10      36.5724 3 4 0 100 1000 4.39823
11      36.5724 3 4 0 100 1000 3.92699
12      36.5724 3 4 0 100 1000 2.82743
13      36.5724 3 4 0 100 1000 2.19911
14      36.5724 3 4 0 100 1000 3.61283
15      36.5724 3 4 0 100 1000 0.785398
16      36.5724 3 4 0 100 1000 1.25664
17      36.5724 3 4 0 100 1000 4.55531
18      36.5724 3 4 0 100 1000 4.71239
19      36.5724 3 4 0 100 1000 0.471239
20      36.5724 3 4 0 100 1000 1.41372
21      36.5724 3 4 0 100 1000 3.14159
22      36.5724 3 4 0 100 1000 5.34071
23      36.5724 3 4 0 100 1000 2.35619
24      36.5724 3 4 0 100 1000 3.76991
25      36.5724 3 4 0 100 1000 2.98451
26      36.5724 3 4 0 100 -1000 0
27      36.5724 3 4 0 100 -1000 2.04204
28      36.5724 3 4 0 100 -1000 6.12611
29      36.5724 3 4 0 100 -1000 5.96903
30      36.5724 3 4 0 100 -1000 1.5708
31      36.5724 3 4 0 100 -1000 5.49779
32      36.5724 3 4 0 100 -1000 5.18363
33      36.5724 3 4 0 100 -1000 0.628319
34      36.5724 3 4 0 100 -1000 4.39823
35      36.5724 3 4 0 100 -1000 3.92699
36      36.5724 3 4 0 100 -1000 2.82743
37      36.5724 3 4 0 100 -1000 2.19911
38      36.5724 3 4 0 100 -1000 3.61283
39      36.5724 3 4 0 100 -1000 0.785398
40      36.5724 3 4 0 100 -1000 1.25664
41      36.5724 3 4 0 100 -1000 4.55531
42      36.5724 3 4 0 100 -1000 4.71239
43      36.5724 3 4 0 100 -1000 0.471239
44      36.5724 3 4 0 100 -1000 1.41372
45      36.5724 3 4 0 100 -1000 3.14159
46      36.5724 3 4 0 100 -1000 5.34071
47      36.5724 3 4 0 100 -1000 2.35619
48      36.5724 3 4 0 100 -1000 3.76991
49      36.5724 3 4 0 100 -1000 2.98451

# Format of trapezoid gradients:
# id amplitude rise flat fall delay
# ..      Hz/m   us   us   us    us
[TRAP]
 1  1.70068e+06 340 5540 340 8120
 2       444444  90 3000  90  10
 3      -241477  50  900  50   0
 4      -107779  30  940  30   0
 5      -827309 170  660 170   0
 6       142045  30 3200  30   0
 7   1.6835e+06 330  210 330   0
 8       107779  30  940  30   0
 9  1.68776e+06 340  450 340   0
10      -112465  30  940  30   0
11       112465  30  940  30   0
12      -117151  30  940  30   0
13       117151  30  940  30   0
14      -121837  30  940  30   0
15       121837  30  940  30   0
16      -126523  30  940  30   0
17       126523  30  940  30   0
18      -131209  30  940  30   0
19       131209  30  940  30   0
20      -135895  30  940  30   0
21       135895  30  940  30   0
22      -140581  30  940  30   0
23       140581  30  940  30   0
24      -145267  30  940  30   0
25       145267  30  940  30   0
26      -149953  30  940  30   0
27       149953  30  940  30   0
28       103093  30  940  30   0
29      -103093  30  940  30   0
30      98406.7  30  940  30   0
31     -98406.7  30  940  30   0
32      93720.7  30  940  30   0
33     -93720.7  30  940  30   0
34      89034.7  30  940  30   0
35     -89034.7  30  940  30   0
36      84348.6  30  940  30   0
37     -84348.6  30  940  30   0
38      79662.6  30  940  30   0
39     -79662.6  30  940  30   0
40      74976.6  30  940  30   0
41     -74976.6  30  940  30   0
42      70290.5  30  940  30   0
43     -70290.5  30  940  30   0
44      65604.5  30  940  30   0
45     -65604.5  30  940  30   0
46      60918.5  30  940  30   0
47     -60918.5  30  940  30   0
48      56232.4  30  940  30   0
49     -56232.4  30  940  30   0
50      51546.4  30  940  30   0
51     -51546.4  30  940  30   0
52      46860.4  30  940  30   0
53     -46860.4  30  940  30   0
54      42174.3  30  940  30   0
55     -42174.3  30  940  30   0
56      37488.3  30  940  30   0
57     -37488.3  30  940  30   0
58      32802.2  30  940  30   0
59     -32802.2  30  940  30   0
60      28116.2  30  940  30   0
61     -28116.2  30  940  30   0
62      23430.2  30  940  30   0
63     -23430.2  30  940  30   0
64      18744.1  30  940  30   0
65     -18744.1  30  940  30   0
66      14058.1  30  940  30   0
67     -14058.1  30  940  30   0
68      9372.07  30  940  30   0
69     -9372.07  30  940  30   0
70      4686.04  30  940  30   0
71     -4686.04  30  940  30   0
72            0  30  940  30   0
73           -0  30  940  30   0

# Format of ADC events:
# id num dwell delay freq phase
# ..  ..    ns    us   Hz   rad
[ADC]
1 100 32000 30 0 5.49779
2 100 32000 30 0 2.82743
3 100 32000 30 0 2.19911
4 100 32000 30 0 3.61283
5 100 32000 30 0 0.785398
6 100 32000 30 0 0
7 100 32000 30 0 1.25664
8 100 32000 30 0 4.55531
9 100 32000 30 0 4.71239
10 100 32000 30 0 1.5708
11 100 32000 30 0 0.471239
12 100 32000 30 0 1.41372
13 100 32000 30 0 4.39823
14 100 32000 30 0 3.14159
15 100 32000 30 0 3.92699
16 100 32000 30 0 5.34071
17 100 32000 30 0 5.96903
18 100 32000 30 0 2.35619
19 100 32000 30 0 3.76991
20 100 32000 30 0 2.04204
21 100 32000 30 0 2.98451
22 100 32000 30 0 5.18363
23 100 32000 30 0 0.628319

# Sequence Shapes
[SHAPES]

shape_id 1
num_samples 8000
0.000252166652
0.000253213472
0.000254264375
0.000255319374
0.000256378485
0.000257441723
0.000258509103
0.000259580639
0.000260656347
0.000261736241
0.000262820337
0.00026390865
0.000265001195
0.000266097988
0.000267199043
0.000268304375
0.000269414002
0.000270527937
0.000271646196
0.000272768796
0.000273895751
0.000275027077
0.000276162789
0.000277302905
0.000278447439
0.000279596407
0.000280749825
0.00028190771
0.000283070076
0.000284236941
0.000285408321
0.00028658423
0.000287764687
0.000288949707
0.000290139306
0.0002913335
0.000292532307
0.000293735743
0.000294943824
0.000296156566
0.000297373987
0.000298596103
0.000299822932
0.000301054488
0.000302290791
0.000303531856
0.000304777701
0.000306028342
0.000307283796
0.000308544082
0.000309809215
0.000311079214
0.000312354095
0.000313633876
0.000314918574
0.000316208207
0.000317502793
0.000318802348
0.000320106891
0.000321416439
0.00032273101
0.000324050622
0.000325375292
0.000326705039
0.000328039881
0.000329379835
0.000330724921
0.000332075155
0.000333430556
0.000334791142
0.000336156933
0.000337527945
0.000338904198
0.00034028571
0.0003416725
0.000343064586
0.000344461987
0.000345864721
0.000347272809
0.000348686267
0.000350105116
0.000351529374
0.000352959061
0.000354394195
0.000355834796
0.000357280883
0.000358732474
0.000360189591
0.000361652251
0.000363120475
0.000364594281
0.00036607369
0.000367558722
0.000369049395
0.00037054573
0.000372047747
0.000373555465
0.000375068904
0.000376588085
0.000378113028
0.000379643752
0.000381180279
0.000382722627
0.000384270818
0.000385824873
0.000387384811
0.000388950653
0.000390522419
0.000392100131
0.00039368381
0.000395273475
0.000396869148
0.00039847085
0.000400078601
0.000401692423
0.000403312338
0.000404938365
0.000406570527
0.000408208845
0.00040985334
0.000411504033
0.000413160947
0.000414824103
0.000416493522
0.000418169226
0.000419851237
0.000421539577
0.000423234268
0.000424935332
0.000426642791
0.000428356667
0.000430076982
0.000431803759
0.00043353702
0.000435276787
0.000437023083
0.00043877593
0.000440535352
0.000442301371
0.000444074009
0.000445853289
0.000447639235
0.000449431869
0.000451231214
0.000453037295
0.000454850132
0.000456669751
0.000458496175
0.000460329426
0.000462169528
0.000464016505
0.000465870381
0.000467731179
0.000469598923
0.000471473636
0.000473355344
0.000475244069
0.000477139837
0.00047904267
0.000480952593
0.000482869631
0.000484793808
0.000486725149
0.000488663677
0.000490609418
0.000492562396
0.000494522636
0.000496490163
0.000498465002
0.000500447177
0.000502436714
0.000504433638
0.000506437974
0.000508449747
0.000510468983
0.000512495707
0.000514529945
0.000516571722
0.000518621065
0.000520677998
0.000522742547
0.00052481474
0.0005268946
0.000528982156
0.000531077431
0.000533180454
0.000535291251
0.000537409846
0.000539536268
0.000541670543
0.000543812697
0.000545962757
0.00054812075
0.000550286703
0.000552460642
0.000554642595
0.000556832588
0.00055903065
0.000561236807
0.000563451087
0.000565673517
0.000567904124
0.000570142937
0.000572389983
0.000574645289
0.000576908884
0.000579180796
0.000581461052
0.000583749681
0.000586046711
0.00058835217
0.000590666087
0.00059298849
0.000595319407
0.000597658868
0.0006000069
0.000602363534
0.000604728797
0.000607102718
0.000609485328
0.000611876654
0.000614276726
0.000616685573
0.000619103225
0.000621529712
0.000623965062
0.000626409306
0.000628862474
0.000631324594
0.000633795698
0.000636275815
0.000638764975
0.000641263208
0.000643770545
0.000646287017
0.000648812653
0.000651347484
0.000653891541
0.000656444855
0.000659007457
0.000661579376
0.000664160645
0.000666751295
0.000669351357
0.000671960861
0.00067457984
0.000677208326
0.000679846348
0.00068249394
0.000685151133
0.000687817959
0.000690494449
0.000693180637
0.000695876553
0.000698582231
0.000701297702
0.000704022999
0.000706758155
0.000709503202
0.000712258173
0.000715023101
0.000717798018
0.000720582958
0.000723377954
0.000726183039
0.000728998246
0.000731823608
0.00073465916
0.000737504934
0.000740360965
0.000743227286
0.000746103931
0.000748990934
0.00075188833
0.000754796151
0.000757714434
0.000760643211
0.000763582518
0.000766532389
0.000769492859
0.000772463962
0.000775445734
0.00077843821
0.000781441423
0.000784455411
0.000787480208
0.000790515849
0.00079356237
0.000796619807
0.000799688195
0.00080276757
0.000805857968
0.000808959425
0.000812071977
0.00081519566
0.000818330511
0.000821476567
0.000824633863
0.000827802436
0.000830982323
0.000834173562
0.000837376188
0.000840590239
0.000843815753
0.000847052765
0.000850301315
0.000853561439
0.000856833175
0.000860116561
0.000863411634
0.000866718433
0.000870036995
0.000873367358
0.000876709562
0.000880063644
0.000883429642
0.000886807596
0.000890197544
0.000893599525
0.000897013577
0.000900439741
0.000903878054
0.000907328557
0.000910791288
0.000914266287
0.000917753594
0.000921253248
0.000924765289
0.000928289757
0.000931826693
0.000935376136
0.000938938126
0.000942512705
0.000946099912
0.000949699788
0.000953312373
0.00095693771
0.000960575838
0.000964226799
0.000967890634
0.000971567384
0.00097525709
0.000978959795
0.00098267554
0.000986404366
0.000990146316
0.000993901432
0.000997669755
0.00100145133
0.00100524619
0.00100905439
0.00101287597
0.00101671097
0.00102055943
0.0010244214
0.00102829691
0.00103218602
0.00103608876
0.00104000519
0.00104393533
0.00104787925
0.00105183697
0.00105580854
0.00105979402
0.00106379343
0.00106780684
0.00107183427
0.00107587578
0.00107993141
0.00108400121
0.00108808522
0.00109218348
0.00109629604
0.00110042295
0.00110456424
0.00110871998
0.0011128902
0.00111707494
0.00112127426
0.0011254882
0.00112971681
0.00113396013
0.0011382182
0.00114249109
0.00114677882
0.00115108146
0.00115539904
0.00115973162
0.00116407923
0.00116844194
0.00117281978
0.0011772128
0.00118162105
0.00118604458
0.00119048344
0.00119493767
0.00119940733
0.00120389246
0.00120839311
0.00121290933
0.00121744116
0.00122198866
0.00122655188
0.00123113086
0.00123572566
0.00124033632
0.00124496289
0.00124960542
0.00125426397
0.00125893858
0.00126362931
0.0012683362
0.0012730593
0.00127779867
0.00128255435
0.0012873264
0.00129211486
0.00129691979
0.00130174125
0.00130657927
0.00131143391
0.00131630523
0.00132119328
0.0013260981
0.00133101975
0.00133595829
0.00134091376
0.00134588622
0.00135087571
0.0013558823
0.00136090604
0.00136594697
0.00137100515
0.00137608064
0.00138117349
0.00138628375
0.00139141148
0.00139655673
0.00140171955
0.0014069
0.00141209814
0.00141731401
0.00142254767
0.00142779918
0.00143306859
0.00143835596
0.00144366135
0.0014489848
0.00145432637
0.00145968612
0.00146506411
0.00147046039
0.00147587501
0.00148130804
0.00148675953
0.00149222954
0.00149771812
0.00150322533
0.00150875123
0.00151429587
0.00151985931
0.00152544162
0.00153104284
0.00153666303
0.00154230226
0.00154796058
0.00155363805
0.00155933473
0.00156505067
0.00157078594
0.00157654059
0.00158231469
0.00158810829
0.00159392145
0.00159975423
0.0016056067
0.0016114789
0.00161737091
0.00162328278
0.00162921456
0.00163516633
0.00164113815
0.00164713006
0.00165314214
0.00165917445
0.00166522704
0.00167129998
0.00167739334
0.00168350716
0.00168964151
0.00169579647
0.00170197208
0.00170816841
0.00171438552
0.00172062348
0.00172688234
0.00173316218
0.00173946305
0.00174578503
0.00175212816
0.00175849252
0.00176487816
0.00177128517
0.00177771358
0.00178416349
0.00179063493
0.00179712799
0.00180364273
0.0018101792
0.00181673748
0.00182331764
0.00182991973
0.00183654382
0.00184318999
0.00184985829
0.00185654879
0.00186326155
0.00186999666
0.00187675416
0.00188353413
0.00189033664
0.00189716175
0.00190400952
0.00191088004
0.00191777336
0.00192468956
0.00193162869
0.00193859084
0.00194557606
0.00195258443
0.00195961601
0.00196667088
0.00197374911
0.00198085075
0.00198797589
0.0019951246
0.00200229693
0.00200949297
0.00201671278
0.00202395643
0.00203122399
0.00203851554
0.00204583115
0.00205317088
0.00206053481
0.00206792301
0.00207533555
0.0020827725
0.00209023394
0.00209771994
0.00210523056
0.00211276589
0.00212032599
0.00212791094
0.00213552081
0.00214315568
0.00215081561
0.00215850068
0.00216621097
0.00217394655
0.0021817075
0.00218949388
0.00219730577
0.00220514325
0.0022130064
0.00222089528
0.00222880998
0.00223675056
0.00224471711
0.0022527097
0.00226072841
0.00226877331
0.00227684448
0.00228494199
0.00229306593
0.00230121637
0.00230939338
0.00231759705
0.00232582745
0.00233408467
0.00234236877
0.00235067984
0.00235901795
0.00236738319
0.00237577563
0.00238419535
0.00239264243
0.00240111695
0.002409619
0.00241814864
0.00242670596
0.00243529104
0.00244390396
0.0024525448
0.00246121364
0.00246991057
0.00247863566
0.00248738899
0.00249617066
0.00250498072
0.00251381928
0.00252268642
0.0025315822
0.00254050673
0.00254946007
0.00255844232
0.00256745356
0.00257649386
0.00258556332
0.00259466202
0.00260379004
0.00261294746
0.00262213437
0.00263135086
0.002640597
0.00264987289
0.00265917862
0.00266851425
0.00267787989
0.00268727561
0.0026967015
0.00270615766
0.00271564416
0.00272516109
0.00273470854
0.0027442866
0.00275389535
0.00276353488
0.00277320528
0.00278290663
0.00279263904
0.00280240257
0.00281219733
0.00282202339
0.00283188086
0.00284176981
0.00285169034
0.00286164254
0.0028716265
0.00288164231
0.00289169005
0.00290176982
0.00291188172
0.00292202582
0.00293220222
0.00294241102
0.0029526523
0.00296292615
0.00297323268
0.00298357196
0.0029939441
0.00300434918
0.0030147873
0.00302525856
0.00303576304
0.00304630083
0.00305687204
0.00306747676
0.00307811507
0.00308878708
0.00309949288
0.00311023257
0.00312100623
0.00313181397
0.00314265588
0.00315353206
0.0031644426
0.0031753876
0.00318636715
0.00319738135
0.0032084303
0.0032195141
0.00323063285
0.00324178663
0.00325297555
0.00326419971
0.0032754592
0.00328675413
0.00329808459
0.00330945068
0.0033208525
0.00333229015
0.00334376373
0.00335527334
0.00336681907
0.00337840104
0.00339001934
0.00340167407
0.00341336534
0.00342509323
0.00343685786
0.00344865933
0.00346049774
0.00347237319
0.00348428578
0.00349623562
0.00350822281
0.00352024745
0.00353230965
0.0035444095
0.00355654712
0.00356872261
0.00358093607
0.00359318761
0.00360547732
0.00361780533
0.00363017172
0.00364257662
0.00365502011
0.00366750232
0.00368002334
0.00369258328
0.00370518225
0.00371782036
0.00373049771
0.00374321441
0.00375597057
0.0037687663
0.0037816017
0.00379447688
0.00380739196
0.00382034703
0.00383334222
0.00384637763
0.00385945336
0.00387256954
0.00388572626
0.00389892364
0.0039121618
0.00392544083
0.00393876086
0.00395212199
0.00396552434
0.00397896801
0.00399245313
0.0040059798
0.00401954813
0.00403315824
0.00404681024
0.00406050425
0.00407424038
0.00408801874
0.00410183944
0.00411570261
0.00412960835
0.00414355678
0.00415754802
0.00417158218
0.00418565938
0.00419977973
0.00421394336
0.00422815036
0.00424240087
0.00425669501
0.00427103287
0.0042854146
0.00429984029
0.00431431008
0.00432882408
0.0043433824
0.00435798517
0.00437263251
0.00438732453
0.00440206136
0.00441684311
0.00443166991
0.00444654187
0.00446145912
0.00447642177
0.00449142995
0.00450648379
0.00452158339
0.00453672889
0.0045519204
0.00456715806
0.00458244197
0.00459777227
0.00461314907
0.00462857251
0.0046440427
0.00465955977
0.00467512385
0.00469073505
0.00470639351
0.00472209935
0.00473785269
0.00475365366
0.00476950239
0.00478539899
0.00480134361
0.00481733637
0.00483337738
0.00484946679
0.00486560472
0.00488179129
0.00489802664
0.00491431089
0.00493064417
0.00494702661
0.00496345834
0.00497993949
0.00499647019
0.00501305057
0.00502968076
0.0050463609
0.0050630911
0.00507987151
0.00509670225
0.00511358346
0.00513051526
0.0051474978
0.0051645312
0.0051816156
0.00519875113
0.00521593793
0.00523317612
0.00525046584
0.00526780722
0.00528520041
0.00530264554
0.00532014273
0.00533769213
0.00535529387
0.00537294809
0.00539065493
0.00540841451
0.00542622698
0.00544409248
0.00546201114
0.00547998311
0.00549800851
0.00551608748
0.00553422018
0.00555240672
0.00557064727
0.00558894194
0.00560729089
0.00562569425
0.00564415216
0.00566266477
0.00568123222
0.00569985464
0.00571853217
0.00573726497
0.00575605317
0.00577489692
0.00579379635
0.00581275161
0.00583176285
0.0058508302
0.00586995382
0.00588913384
0.00590837041
0.00592766367
0.00594701378
0.00596642087
0.00598588509
0.00600540658
0.0060249855
0.00604462199
0.0060643162
0.00608406827
0.00610387835
0.00612374659
0.00614367314
0.00616365814
0.00618370175
0.00620380411
0.00622396537
0.00624418568
0.0062644652
0.00628480406
0.00630520244
0.00632566046
0.00634617829
0.00636675607
0.00638739396
0.00640809211
0.00642885067
0.0064496698
0.00647054965
0.00649149036
0.0065124921
0.00653355502
0.00655467927
0.006575865
0.00659711238
0.00661842155
0.00663979268
0.00666122591
0.00668272141
0.00670427933
0.00672589982
0.00674758305
0.00676932916
0.00679113833
0.0068130107
0.00683494644
0.00685694569
0.00687900863
0.00690113541
0.00692332619
0.00694558114
0.0069679004
0.00699028414
0.00701273252
0.0070352457
0.00705782385
0.00708046712
0.00710317568
0.00712594969
0.00714878931
0.0071716947
0.00719466603
0.00721770347
0.00724080717
0.00726397729
0.00728721402
0.0073105175
0.0073338879
0.00735732539
0.00738083014
0.00740440231
0.00742804207
0.00745174958
0.00747552501
0.00749936853
0.00752328031
0.00754726051
0.00757130931
0.00759542686
0.00761961335
0.00764386894
0.00766819379
0.00769258809
0.00771705199
0.00774158567
0.00776618931
0.00779086307
0.00781560712
0.00784042163
0.00786530679
0.00789026275
0.0079152897
0.00794038781
0.00796555724
0.00799079818
0.0080161108
0.00804149527
0.00806695177
0.00809248047
0.00811808155
0.00814375519
0.00816950155
0.00819532083
0.00822121318
0.0082471788
0.00827321785
0.00829933052
0.00832551699
0.00835177743
0.00837811202
0.00840452094
0.00843100437
0.00845756249
0.00848419548
0.00851090353
0.0085376868
0.00856454549
0.00859147977
0.00861848983
0.00864557585
0.00867273801
0.00869997649
0.00872729148
0.00875468316
0.00878215171
0.00880969732
0.00883732018
0.00886502046
0.00889279836
0.00892065406
0.00894858774
0.00897659959
0.0090046898
0.00903285855
0.00906110603
0.00908943244
0.00911783795
0.00914632276
0.00917488705
0.00920353101
0.00923225484
0.00926105871
0.00928994283
0.00931890739
0.00934795256
0.00937707855
0.00940628554
0.00943557374
0.00946494332
0.00949439448
0.00952392741
0.00955354232
0.00958323938
0.0096130188
0.00964288077
0.00967282548
0.00970285313
0.00973296391
0.00976315802
0.00979343565
0.009823797
0.00985424228
0.00988477166
0.00991538536
0.00994608356
0.00997686648
0.0100077343
0.0100386872
0.0100697254
0.0101008492
0.0101320586
0.0101633539
0.0101947354
0.0102262031
0.0102577573
0.0102893983
0.0103211261
0.0103529411
0.0103848434
0.0104168331
0.0104489106
0.0104810761
0.0105133296
0.0105456715
0.0105781019
0.0106106211
0.0106432292
0.0106759264
0.010708713
0.0107415892
0.0107745551
